# id:                 93
# size:               9000
# coupling constant:  1.000000E+00
# inhomogenity Delta: 1.500000E+00
0.010000	560.158386
1.009999	601.006104
2.009999	724.024170
3.009998	945.065002
4.009997	1288.956665
5.010020	1788.809937
6.010043	2470.803955
7.010066	3318.004150
8.010088	4190.542480
9.010111	4780.267090
10.010134	4780.877441
11.010157	4206.032227
12.010180	3377.356201
13.010202	2578.915283
14.010225	1947.911377
15.010248	1510.677124
16.010271	1247.363525
17.010294	1132.037109
18.010317	1132.305786
19.010340	1200.758789
20.010363	1259.532104
21.010386	1240.388306
22.010408	1110.327271
23.010431	902.995972
24.010454	690.828735
25.010477	529.802734
26.010500	427.428314
27.010523	376.057770
28.010546	345.765259
29.010569	303.585724
30.010592	258.499207
31.010614	208.211243
32.010635	150.457306
33.010468	103.406700
34.010300	85.131729
35.010132	104.206032
36.009964	150.434280
37.009796	188.573547
38.009628	194.569870
39.009460	171.692947
40.009293	125.389687
41.009125	86.931679
42.008957	74.924767
43.008789	74.964630
44.008621	84.894592
45.008453	94.806816
46.008286	97.032532
47.008118	98.932014
48.007950	83.589424
49.007782	63.300716
50.007614	51.529552
51.007446	55.728664
52.007278	82.865028
53.007111	111.215561
54.006943	113.878372
55.006775	81.757828
56.006607	49.726040
57.006439	51.574364
58.006271	58.003460
59.006104	50.353291
60.005936	49.626125
61.005768	56.605846
62.005600	68.947952
63.005432	60.112980
64.005264	47.889534
65.005478	44.127045
66.005692	51.153000
67.005905	51.186733
68.006119	39.023129
69.006332	45.854797
70.006546	50.629822
71.006760	35.961189
72.006973	31.203299
73.007187	37.360661
74.007401	48.728291
75.007614	40.884865
76.007828	17.184160
77.008041	1.146363
78.008255	7.203588
79.008469	30.454676
80.008682	60.776783
81.008896	60.548141
82.009109	35.405663
83.009323	24.685551
84.009537	37.717678
85.009750	63.126972
86.009964	91.904785
87.010178	111.236237
88.010391	116.223381
89.010605	104.079300
90.010818	82.350700
91.011032	46.481152
92.011246	19.490208
93.011459	-9.510381
94.011673	-7.703766
95.011887	8.508389
96.012100	7.916864
97.012314	5.967235
98.012527	5.961686
99.012741	3.962185
100.012955	-6.367798
101.013168	4.506578
102.013382	35.080093
103.013596	41.413570
104.013809	38.120007
105.014023	41.543911
106.014236	39.042610
107.014450	29.294096
108.014664	20.905787
109.014877	40.223213
110.015091	38.190533
111.015305	46.470516
112.015518	42.072403
113.015732	25.982975
114.015945	28.995773
115.016159	26.748869
116.016373	31.566153
117.016586	32.803581
118.016800	24.659189
119.017014	39.473846
120.017227	50.389633
121.017441	39.885529
122.017654	45.525925
123.017868	55.979061
124.018082	74.153465
125.018295	71.283676
126.018509	64.840988
127.018723	47.520245
128.018921	55.927380
129.018372	85.869431
130.017822	105.456894
131.017273	124.627541
132.016724	90.352020
133.016174	28.119562
134.015625	-10.378927
135.015076	-3.990409
136.014526	12.649098
137.013977	27.883789
138.013428	17.475853
139.012878	20.147535
140.012329	-3.555502
141.011780	-44.661514
142.011230	-60.761845
143.010681	-33.612038
144.010132	-18.123692
145.009583	11.083727
146.009033	28.670397
147.008484	44.456379
148.007935	29.405859
149.007385	6.009296
150.006836	1.917299
151.006287	-5.018762
152.005737	-2.637575
153.005188	-33.233055
154.004639	-64.054993
155.004089	-63.232586
156.003540	-50.486313
157.002991	-27.166046
158.002441	21.189020
159.001892	26.346573
160.001343	7.139158
161.000793	-25.955292
162.000244	-13.532543
162.999695	-7.599277
163.999146	-21.323984
164.998596	-40.905739
165.998047	-50.965919
166.997498	-65.041397
167.996948	-70.921371
168.996399	-38.816364
169.995850	15.816161
170.995300	43.023792
171.994751	26.203430
172.994202	-4.066592
173.993652	-33.129475
174.993103	-1.952872
175.992554	-0.965957
176.992004	-11.044076
177.991455	3.247417
178.990906	2.758596
179.990356	1.815773
180.989807	2.626433
181.989258	1.605068
182.988708	12.173068
183.988159	23.045111
184.987610	10.476476
185.987061	-18.482136
186.986511	-14.018418
187.985962	-13.036831
188.985413	-22.204466
189.984863	-17.837236
190.984314	-9.080024
191.983765	6.968160
192.983215	35.253014
193.982666	25.189680
194.982117	-15.531542
195.981567	-32.304489
196.981018	-17.328192
197.980469	-0.706153
198.979919	9.270815
199.979370	28.505178
200.978821	35.950138
201.978271	34.429146
202.977722	39.300316
203.977173	5.144185
204.976624	-1.680292
205.976074	-31.378582
206.975525	-16.528107
207.974976	-13.040794
208.974426	1.362576
209.973877	1.657866
210.973328	-5.238529
211.972778	4.009344
212.972229	12.206745
213.971680	13.488042
214.971130	13.393728
215.970581	21.246061
216.970032	4.932712
217.969482	-3.549700
218.968933	-10.536369
219.968384	-3.124606
220.967834	0.578738
221.967285	4.275236
222.966736	12.460188
223.966187	16.077879
224.965637	10.870061
225.965088	4.647768
226.964539	2.572750
227.963989	-1.764764
228.963440	-11.885584
229.962891	-7.631358
230.962341	3.421724
231.961792	23.338768
232.961243	25.801600
233.960693	15.116902
234.960144	-16.151897
235.959595	-34.946892
236.959045	-29.587234
237.958496	-22.205660
238.957947	-5.764512
239.957397	-12.643810
240.956848	5.434597
241.956299	17.836851
242.955750	4.705964
243.955200	-5.980603
244.954651	-7.101277
245.954102	-9.718431
246.953552	-0.302310
247.953003	2.447443
248.952454	8.815022
249.951904	15.350897
250.951355	17.905964
251.950806	16.548885
252.950256	8.011079
253.949707	-2.005035
254.949158	-4.681783
255.948608	5.266560
256.949493	19.140425
257.950470	26.283098
258.951447	28.755169
259.952423	31.789822
260.953400	28.964624
261.954376	9.311094
262.955353	-1.959515
263.956329	6.853890
264.957306	14.811007
265.958282	1.925752
266.959259	1.534551
267.960236	2.717026
268.961212	2.352839
269.962189	-13.124804
270.963165	-13.604850
271.964142	-21.623886
272.965118	-14.580088
273.966095	-12.521586
274.967072	-5.241156
275.968048	-6.004459
276.969025	1.790678
277.970001	1.797050
278.970978	4.484703
279.971954	7.594495
280.972931	4.016840
281.973907	17.151960
282.974884	10.186365
283.975861	9.380090
284.976837	18.370388
285.977814	23.403053
286.978790	4.415040
287.979767	-7.127167
288.980743	-12.679932
289.981720	-21.431782
290.982697	-19.590536
291.983673	-13.693958
292.984650	-12.608802
293.985626	-6.159383
294.986603	6.846699
295.987579	4.748319
296.988556	-4.505615
297.989532	-1.253497
298.990509	0.364838
299.991486	-7.218594
300.992462	-4.956499
301.993439	-5.158002
302.994415	5.691552
303.995392	0.987751
304.996368	-0.121960
305.997345	-3.493621
306.998322	-1.277359
307.999298	-9.794823
309.000275	-9.982805
310.001251	-11.493882
311.002228	-4.940962
312.003204	-1.087616
313.004181	1.600901
314.005157	8.452761
315.006134	5.833300
316.007111	-2.040460
317.008087	-4.477840
318.009064	0.872868
319.010040	-4.585411
320.011017	-6.117244
321.011993	-6.010231
322.012970	-10.141468
323.013947	-8.007275
324.014923	-2.998991
325.015900	-7.943408
326.016876	-6.513608
327.017853	-1.766447
328.018829	-8.576073
329.019806	-9.210103
330.020782	-7.420634
331.021759	-2.387280
332.022736	0.253052
333.023712	-1.023664
334.024689	-2.208791
335.025665	-4.635701
336.026642	4.573077
337.027618	3.277859
338.028595	-1.540065
339.029572	-0.584650
340.030548	2.655094
341.031525	0.515952
342.032501	-1.499024
343.033478	-2.009917
344.034454	4.068817
345.035431	6.753728
346.036407	2.504683
347.037384	5.337276
348.038361	4.649934
349.039337	-0.325105
350.040314	5.114498
351.041290	5.411506
352.042267	3.237297
353.043243	2.137268
354.044220	0.480189
355.045197	0.181573
356.046173	-2.814139
357.047150	-2.822671
358.048126	-0.418768
359.049103	-1.359631
360.050079	-1.358976
361.051056	-0.885882
362.052032	-2.471207
363.053009	-0.525944
364.053986	0.595570
365.054962	-2.515714
366.055939	-1.491095
367.056915	1.002103
368.057892	2.029715
369.058868	1.953509
370.059845	1.640931
371.060822	2.118519
372.061798	3.834822
373.062775	4.656277
374.063751	4.394244
375.064728	1.006052
376.065704	1.295568
377.066681	3.430936
378.067657	4.403039
379.068634	3.322930
380.069611	1.121176
381.070587	-0.027479
382.071564	1.907726
383.072540	2.495868
384.073517	2.092211
385.074493	2.821176
386.075470	3.637266
387.076447	3.666442
388.077423	3.195648
389.078400	4.615525
390.079376	5.172476
391.080353	2.747992
392.081329	4.034932
393.082306	3.810203
394.083282	3.425663
395.084259	2.700215
396.085236	3.593146
397.086212	2.449157
398.087189	-1.846118
399.088165	0.019809
400.089142	0.769646
401.090118	-2.286193
402.091095	-1.145194
403.092072	-1.034080
404.093048	0.198444
405.094025	0.818024
406.095001	1.307378
407.095978	3.193947
408.096954	3.223035
409.097931	2.571379
410.098907	2.048535
411.099884	4.390837
412.100861	2.710324
413.101837	-1.525134
414.102814	-0.300057
415.103790	0.954659
416.104767	1.488609
417.105743	3.470274
418.106720	3.422117
419.107697	4.072588
420.108673	3.750451
421.109650	3.717159
422.110626	3.749833
423.111603	3.979599
424.112579	4.644509
425.113556	3.281762
426.114532	0.033565
427.115509	0.154127
428.116486	1.278948
429.117462	0.768190
430.118439	2.023921
431.119415	3.321161
432.120392	2.149791
433.121368	1.845261
434.122345	0.115360
435.123322	0.870606
436.124298	0.026579
437.125275	-0.926361
438.126251	-0.984297
439.127228	-2.493629
440.128204	-2.307108
441.129181	-0.431291
442.130157	-1.426059
443.131134	-0.972170
444.132111	0.814305
445.133087	0.366305
446.134064	1.044527
447.135040	0.295378
448.136017	0.487030
449.136993	1.495175
450.137970	1.969924
451.138947	2.053254
452.139923	1.599504
453.140900	2.575304
454.141876	2.403162
455.142853	1.133540
456.143829	2.257735
457.144806	1.373121
458.145782	1.042868
459.146759	1.528540
460.147736	1.817807
461.148712	0.428665
462.149689	-0.461795
463.150665	-1.613070
464.151642	-2.144250
465.152618	-2.249976
466.153595	-3.992497
467.154572	-3.912485
468.155548	-4.052512
469.156525	-3.689245
470.157501	-2.649439
471.158478	0.051958
472.159454	1.434929
473.160431	1.276356
474.161407	2.086764
475.162384	2.488986
476.163361	0.175847
477.164337	-1.435526
478.165314	-0.581511
479.166290	-2.589129
480.167267	-3.273876
481.168243	-2.071424
482.169220	-1.934084
483.170197	-0.290127
484.171173	-0.137860
485.172150	0.378070
486.173126	-0.638680
487.174103	-0.678054
488.175079	-1.214953
489.176056	-1.436821
490.177032	-0.104946
491.178009	-0.194569
492.178986	0.837378
493.179962	0.435957
494.180939	-0.189093
495.181915	-0.398977
496.182892	-0.515148
497.183868	-1.252652
498.184845	-0.217069
499.185822	-0.638389
500.186798	-1.501500
501.187775	-1.241631
502.188751	-1.290975
503.189728	-1.993177
504.190704	-1.268564
505.191681	-1.922733
506.192657	-2.443815
507.193634	-1.951674
508.194611	-1.874809
509.195587	-2.066377
510.196564	-1.638361
511.197540	-0.675143
512.198486	-0.953335
513.199463	-0.532515
514.200439	-0.594048
515.201416	-0.569264
516.202393	-0.810115
517.203369	-0.414039
518.204346	0.178092
519.205322	-0.298564
520.206299	0.285577
521.207275	0.242827
522.208252	0.253694
523.209229	0.471723
524.210205	-0.537454
525.211182	-0.296912
526.212158	-1.291471
527.213135	-1.637855
528.214111	-1.953704
529.215088	-1.226780
530.216064	-1.139418
531.217041	-1.162361
532.218018	-1.367179
533.218994	-1.178497
534.219971	-1.203389
535.220947	-1.857973
536.221924	-1.452953
537.222900	-1.519208
538.223877	-1.480763
539.224854	-1.683984
540.225830	-1.532263
541.226807	-1.626821
542.227783	-1.942055
543.228760	-2.047870
544.229736	-2.570646
545.230713	-2.138295
546.231689	-2.455576
547.232666	-2.791582
548.233643	-2.660621
549.234619	-2.819900
550.235596	-3.196933
551.236572	-2.876959
552.237549	-2.426028
553.238525	-2.437777
554.239502	-2.273937
555.240479	-2.104148
556.241455	-1.888825
557.242432	-1.671749
558.243408	-1.534173
559.244385	-1.750057
560.245361	-1.793223
561.246338	-1.727885
562.247314	-1.993245
563.248291	-2.039031
564.249268	-2.189553
565.250244	-2.251054
566.251221	-2.497082
567.252197	-2.482796
568.253174	-2.436564
569.254150	-2.188447
570.255127	-2.049501
571.256104	-1.923558
572.257080	-1.316343
573.258057	-1.381053
574.259033	-1.077707
575.260010	-0.864829
576.260986	-0.616451
577.261963	-0.776283
578.262939	-0.899488
579.263916	-0.869689
580.264893	-1.382581
581.265869	-1.817547
582.266846	-1.803536
583.267822	-2.074193
584.268799	-2.455565
585.269775	-2.446750
586.270752	-2.777846
587.271729	-2.464239
588.272705	-2.569588
589.273682	-2.340493
590.274658	-2.019952
591.275635	-2.164778
592.276611	-1.974345
593.277588	-2.286427
594.278564	-1.745168
595.279541	-1.854274
596.280518	-1.418089
597.281494	-1.492759
598.282471	-1.117932
599.283447	-1.089586
600.284424	-1.573982
601.285400	-1.283690
602.286377	-1.737931
603.287354	-1.630135
604.288330	-2.402116
605.289307	-2.194659
606.290283	-2.586059
607.291260	-2.827155
608.292236	-2.795074
609.293213	-2.686106
610.294189	-2.395534
611.295166	-2.523123
612.296143	-2.278466
613.297119	-2.300935
614.298096	-2.255938
615.299072	-2.475782
616.300049	-2.190784
617.301025	-2.270331
618.302002	-2.020997
619.302979	-1.916841
620.303955	-1.824210
621.304932	-1.599098
622.305908	-1.820450
623.306885	-1.715875
624.307861	-1.880506
625.308838	-1.788319
626.309814	-1.950382
627.310791	-1.693988
628.311768	-1.545133
629.312744	-1.302627
630.313721	-1.123376
631.314697	-1.104489
632.315674	-0.967370
633.316650	-1.054151
634.317627	-1.282951
635.318604	-1.627038
636.319580	-1.836942
637.320557	-2.166192
638.321533	-2.298954
639.322510	-2.603548
640.323486	-2.361103
641.324463	-2.397382
642.325439	-2.405049
643.326416	-2.262009
644.327393	-2.094967
645.328369	-2.163600
646.329346	-2.239181
647.330322	-2.082220
648.331299	-2.058916
649.332275	-2.041578
650.333252	-2.062159
651.334229	-1.881537
652.335205	-1.773098
653.336182	-1.739221
654.337158	-1.829624
655.338135	-1.588587
656.339111	-1.672905
657.340088	-1.831113
658.341064	-1.818452
659.342041	-1.751779
660.343018	-1.933145
661.343994	-1.995797
662.344971	-1.855697
663.345947	-1.810819
664.346924	-1.716560
665.347900	-1.742965
666.348877	-1.434105
667.349854	-1.488629
668.350830	-1.435950
669.351807	-1.550759
670.352783	-1.494487
671.353760	-1.571540
672.354736	-1.880315
673.355713	-1.844380
674.356689	-2.028761
675.357666	-2.057254
676.358643	-2.261483
677.359619	-2.228950
678.360596	-2.285614
679.361572	-2.346067
680.362549	-2.415817
681.363525	-2.397914
682.364502	-2.373508
683.365479	-2.396648
684.366455	-2.374425
685.367432	-2.296555
686.368408	-2.203316
687.369385	-2.264045
688.370361	-2.094281
689.371338	-2.129497
690.372314	-1.962093
691.373291	-2.029500
692.374268	-1.966713
693.375244	-1.900290
694.376221	-1.863284
695.377197	-1.797846
696.378174	-1.887809
697.379150	-1.694928
698.380127	-1.818592
699.381104	-1.725746
700.382080	-1.805916
701.383057	-1.626000
702.384033	-1.678221
703.385010	-1.605624
704.385986	-1.526880
705.386963	-1.476913
706.387939	-1.311106
707.388916	-1.491815
708.389893	-1.269534
709.390869	-1.369244
710.391846	-1.313259
711.392822	-1.470091
712.393799	-1.370050
713.394775	-1.446688
714.395752	-1.498491
715.396729	-1.476505
716.397705	-1.587312
717.398682	-1.455564
718.399658	-1.758731
719.400635	-1.704823
720.401611	-1.899022
721.402588	-1.892566
722.403564	-2.076357
723.404541	-2.108564
724.405518	-2.062268
725.406494	-2.141525
726.407471	-2.091050
727.408447	-2.152781
728.409424	-1.961881
729.410400	-2.111079
730.411377	-1.998362
731.412354	-2.077071
732.413330	-1.903133
733.414307	-1.974406
734.415283	-1.936895
735.416260	-1.796995
736.417236	-1.753647
737.418213	-1.673375
738.419189	-1.706129
739.420166	-1.557430
740.421143	-1.646552
741.422119	-1.605829
742.423096	-1.752473
743.424072	-1.599004
744.425049	-1.735844
745.426025	-1.721739
746.427002	-1.779784
747.427979	-1.635741
748.428955	-1.734696
749.429932	-1.728409
750.430908	-1.682652
751.431885	-1.645333
752.432861	-1.609369
753.433838	-1.692562
754.434814	-1.478328
755.435791	-1.553846
756.436768	-1.385812
757.437744	-1.553041
758.438721	-1.263572
759.439697	-1.400669
760.440674	-1.302383
761.441650	-1.386992
762.442627	-1.230898
763.443604	-1.306573
764.444580	-1.347527
765.445557	-1.302775
766.446533	-1.321008
767.447510	-1.299636
768.448486	-1.503514
769.449463	-1.361671
770.450439	-1.556810
771.451416	-1.508441
772.452393	-1.772709
773.453369	-1.635540
774.454346	-1.812193
775.455322	-1.841617
776.456299	-1.925165
777.457275	-1.894053
778.458252	-1.944511
779.459229	-2.031950
780.460205	-2.015508
781.461182	-2.015393
782.462158	-2.033565
783.463135	-2.070571
784.464111	-2.013445
785.465088	-1.964485
786.466064	-1.958047
787.467041	-1.977485
788.468018	-1.887922
789.468994	-1.972969
790.469971	-1.933117
791.470947	-2.094692
792.471924	-1.966592
793.472900	-2.166137
794.473877	-2.066464
795.474854	-2.203966
796.475830	-2.128433
797.476807	-2.202095
798.477783	-2.238929
799.478760	-2.256473
800.479736	-2.333407
801.480713	-2.324431
802.481689	-2.436520
803.482666	-2.366515
804.483643	-2.443439
805.484619	-2.329221
806.485596	-2.398814
807.486572	-2.221513
808.487549	-2.295233
809.488525	-2.086721
810.489502	-2.171703
811.490479	-2.007829
812.491455	-2.043485
813.492432	-1.936160
814.493408	-1.946498
815.494385	-1.929741
816.495361	-1.840817
817.496338	-1.896476
818.497314	-1.767528
819.498291	-1.856098
820.499268	-1.639404
821.500244	-1.752746
822.501221	-1.569432
823.502197	-1.644792
824.503174	-1.487517
825.504150	-1.561103
826.505127	-1.510601
827.506104	-1.528435
828.507080	-1.523987
829.508057	-1.544626
830.509033	-1.608701
831.510010	-1.561743
832.510986	-1.629560
833.511963	-1.608592
834.512939	-1.672882
835.513916	-1.606471
836.514893	-1.669500
837.515869	-1.663855
838.516846	-1.717408
839.517822	-1.706010
840.518799	-1.800551
841.519775	-1.822284
842.520752	-1.926012
843.521729	-1.891750
844.522705	-2.000908
845.523682	-1.956292
846.524658	-1.992284
847.525635	-1.917452
848.526611	-1.907643
849.527588	-1.884448
850.528564	-1.795884
851.529541	-1.806905
852.530518	-1.731624
853.531494	-1.808320
854.532471	-1.724563
855.533447	-1.812460
856.534424	-1.789564
857.535400	-1.882331
858.536377	-1.859319
859.537354	-1.910415
860.538330	-1.923779
861.539307	-1.965118
862.540283	-1.932753
863.541260	-1.974541
864.542236	-1.983830
865.543213	-2.036485
866.544189	-2.006356
867.545166	-2.077444
868.546143	-2.104181
869.547119	-2.128730
870.548096	-2.138485
871.549072	-2.129225
872.550049	-2.212445
873.551025	-2.113012
874.552002	-2.183573
875.552979	-2.085596
876.553955	-2.191589
877.554932	-2.041684
878.555908	-2.101727
879.556885	-2.024476
880.557861	-2.054286
881.558838	-1.949786
882.559814	-1.931626
883.560791	-1.910454
884.561768	-1.845795
885.562744	-1.785178
886.563721	-1.709349
887.564697	-1.720638
888.565674	-1.605682
889.566650	-1.597006
890.567627	-1.510372
891.568604	-1.590288
892.569580	-1.462307
893.570557	-1.546618
894.571533	-1.478778
895.572510	-1.611219
896.573486	-1.514640
897.574463	-1.622061
898.575439	-1.618148
899.576416	-1.695373
900.577393	-1.682253
901.578369	-1.703948
902.579346	-1.786880
903.580322	-1.744279
904.581299	-1.799892
905.582275	-1.744147
906.583252	-1.848639
907.584229	-1.757083
908.585205	-1.797821
909.586182	-1.741094
910.587158	-1.793115
911.588135	-1.702229
912.589111	-1.707017
913.590088	-1.662627
914.591064	-1.700401
915.592041	-1.623622
916.593018	-1.667684
917.593994	-1.655207
918.594971	-1.732183
919.595947	-1.689548
920.596924	-1.765694
921.597900	-1.794485
922.598877	-1.833996
923.599854	-1.842625
924.600830	-1.848419
925.601807	-1.934237
926.602783	-1.872620
927.603760	-1.949509
928.604736	-1.877913
929.605713	-2.015748
930.606689	-1.882490
931.607666	-1.987040
932.608643	-1.880368
933.609619	-1.991116
934.610596	-1.845367
935.611572	-1.913474
936.612549	-1.849320
937.613525	-1.881790
938.614502	-1.838139
939.615479	-1.814688
940.616455	-1.890707
941.617432	-1.788560
942.618408	-1.887130
943.619385	-1.745980
944.620361	-1.914948
945.621338	-1.726762
946.622314	-1.851256
947.623291	-1.713084
948.624268	-1.811970
949.625244	-1.694954
950.626221	-1.700245
951.627197	-1.693309
952.628174	-1.640237
953.629150	-1.668381
