# id:                 15
# size:               9000
# coupling constant:  1.000000E+00
# inhomogenity Delta: 1.500000E+00
0.010000	560.121582
1.009999	600.972168
2.009999	723.983521
3.009998	944.977722
4.009997	1288.814941
5.010020	1788.459961
6.010043	2469.894287
7.010066	3316.176758
8.010088	4186.527832
9.010111	4775.344238
10.010134	4777.366211
11.010157	4204.435547
12.010180	3377.214600
13.010202	2578.660156
14.010225	1948.031982
15.010248	1510.186890
16.010271	1246.794067
17.010294	1132.278564
18.010317	1135.107666
19.010340	1209.774658
20.010363	1280.395508
21.010386	1271.122437
22.010408	1151.091431
23.010431	956.962891
24.010454	759.825745
25.010477	596.652466
26.010500	486.618439
27.010523	420.059448
28.010546	380.975342
29.010569	361.143921
30.010592	341.207489
31.010614	299.469727
32.010635	240.912445
33.010468	185.264084
34.010300	143.055283
35.010132	133.695892
36.009964	159.389694
37.009796	184.782196
38.009628	194.026886
39.009460	186.946198
40.009293	171.538834
41.009125	155.799011
42.008957	140.200851
43.008789	123.645370
44.008621	115.176964
45.008453	122.039482
46.008286	131.085571
47.008118	134.183258
48.007950	133.549377
49.007782	135.781464
50.007614	131.457840
51.007446	127.940033
52.007278	134.254883
53.007111	147.245728
54.006943	133.878632
55.006775	115.861351
56.006607	106.899017
57.006439	104.201714
58.006271	97.924377
59.006104	92.741791
60.005936	86.741798
61.005768	76.853111
62.005600	81.802315
63.005432	84.584000
64.005264	90.450058
65.005478	90.173103
66.005692	87.069962
67.005905	79.631584
68.006119	66.614059
69.006332	44.604309
70.006546	18.291893
71.006760	-3.013866
72.006973	-15.093838
73.007187	0.118868
74.007401	26.532558
75.007614	36.633785
76.007828	20.392162
77.008041	5.722836
78.008255	6.365416
79.008469	24.252148
80.008682	30.795082
81.008896	-0.265485
82.009109	-20.652521
83.009323	-27.091444
84.009537	-42.755161
85.009750	-32.927803
86.009964	1.351696
87.010178	25.577301
88.010391	23.233442
89.010605	0.624617
90.010818	-36.335529
91.011032	-74.588295
92.011246	-95.430405
93.011459	-99.302795
94.011673	-95.827003
95.011887	-79.402786
96.012100	-59.612591
97.012314	-46.629448
98.012527	-72.174454
99.012741	-86.273293
100.012955	-89.768356
101.013168	-92.435844
102.013382	-72.351303
103.013596	-54.822872
104.013809	-42.672997
105.014023	-19.939306
106.014236	3.199172
107.014450	9.821170
108.014664	-21.324392
109.014877	-46.435066
110.015091	-19.596573
111.015305	13.823484
112.015518	16.963528
113.015732	15.573205
114.015945	33.990715
115.016159	35.160229
116.016373	39.683949
117.016586	52.173431
118.016800	52.604294
119.017014	59.277817
120.017227	70.422699
121.017441	57.780712
122.017654	34.143036
123.017868	12.563241
124.018082	40.370037
125.018295	67.626587
126.018509	70.467911
127.018723	51.346203
128.018921	12.645335
129.018372	-13.951004
130.017822	-25.588076
131.017273	-10.777497
132.016724	5.003836
133.016174	-13.706921
134.015625	-22.839064
135.015076	3.381069
136.014526	17.072426
137.013977	46.718220
138.013428	53.679207
139.012878	59.393932
140.012329	25.429813
141.011780	5.254222
142.011230	-3.668637
143.010681	-14.588641
144.010132	-19.175297
145.009583	-17.045996
146.009033	-31.608400
147.008484	-57.583843
148.007935	-79.624199
149.007385	-85.098831
150.006836	-52.280716
151.006287	-28.574110
152.005737	-27.315502
153.005188	10.660089
154.004639	49.800037
155.004089	70.322800
156.003540	88.431572
157.002991	67.974899
158.002441	46.706921
159.001892	40.744049
160.001343	20.478701
161.000793	10.767412
162.000244	14.314865
162.999695	40.763996
163.999146	54.122677
164.998596	48.349567
165.998047	58.380554
166.997498	66.897232
167.996948	20.825945
168.996399	-13.533576
169.995850	-40.669876
170.995300	-47.859661
171.994751	-35.469810
172.994202	-49.850689
173.993652	-25.694944
174.993103	-11.612605
175.992554	23.948536
176.992004	22.390493
177.991455	-0.856977
178.990906	-6.803769
179.990356	-15.025152
180.989807	-41.656357
181.989258	-57.615742
182.988708	-22.593540
183.988159	-18.399343
184.987610	-28.775372
185.987061	-15.070251
186.986511	-34.941906
187.985962	-10.038667
188.985413	-6.474932
189.984863	-22.829689
190.984314	0.650151
191.983765	29.716774
192.983215	24.673874
193.982666	37.459831
194.982117	37.687813
195.981567	25.520817
196.981018	5.769552
197.980469	6.594760
198.979919	-3.113054
199.979370	-36.056889
200.978821	-24.001045
201.978271	3.324394
202.977722	22.814590
203.977173	1.416975
204.976624	20.019377
205.976074	4.494913
206.975525	28.184280
207.974976	12.093982
208.974426	-9.966419
209.973877	1.164007
210.973328	19.230043
211.972778	24.471592
212.972229	19.864471
213.971680	12.574926
214.971130	13.185574
215.970581	6.664231
216.970032	5.750639
217.969482	25.956949
218.968933	22.360928
219.968384	25.286331
220.967834	21.131613
221.967285	23.318182
222.966736	17.014435
223.966187	13.658757
224.965637	-2.045465
225.965088	-14.890086
226.964539	-7.855965
227.963989	2.726552
228.963440	17.698092
229.962891	17.188103
230.962341	14.940128
231.961792	16.963127
232.961243	-12.744939
233.960693	-10.585474
234.960144	-3.886474
235.959595	-0.374197
236.959045	10.284773
237.958496	22.895992
238.957947	28.648489
239.957397	28.004288
240.956848	5.549157
241.956299	4.279539
242.955750	-3.202755
243.955200	-25.246286
244.954651	-7.790998
245.954102	-1.570651
246.953552	-0.015965
247.953003	-15.104384
248.952454	-4.073390
249.951904	14.694818
250.951355	18.131401
251.950806	12.510017
252.950256	15.303543
253.949707	-8.897494
254.949158	-1.056136
255.948608	5.681930
256.949493	10.904189
257.950470	18.201347
258.951447	17.011988
259.952423	5.423880
260.953400	6.517540
261.954376	-11.963350
262.955353	-13.493397
263.956329	4.316187
264.957306	-4.712727
265.958282	1.552498
266.959259	9.102152
267.960236	21.336891
268.961212	6.587041
269.962189	2.665329
270.963165	13.807828
271.964142	25.593853
272.965118	15.262966
273.966095	7.738643
274.967072	13.130113
275.968048	14.771054
276.969025	21.878983
277.970001	21.105320
278.970978	21.775192
279.971954	12.478065
280.972931	12.802896
281.973907	19.481503
282.974884	18.158121
283.975861	7.228282
284.976837	4.653506
285.977814	2.976747
286.978790	2.522458
287.979767	14.021788
288.980743	13.598890
289.981720	2.923111
290.982697	-0.735644
291.983673	-8.168148
292.984650	-3.970316
293.985626	2.233030
294.986603	0.275243
295.987579	-11.041711
296.988556	-6.220201
297.989532	-9.580098
298.990509	-5.443120
299.991486	2.285026
300.992462	1.901028
301.993439	1.032578
302.994415	-1.116907
303.995392	-0.381958
304.996368	-2.753991
305.997345	-2.506118
306.998322	-0.397930
307.999298	3.076727
309.000275	0.773797
310.001251	0.089525
311.002228	7.776823
312.003204	6.382546
313.004181	7.543723
314.005157	16.055937
315.006134	11.835890
316.007111	0.863291
317.008087	1.580093
318.009064	1.047039
319.010040	1.749282
320.011017	-2.804018
321.011993	-4.081017
322.012970	-3.322928
323.013947	-0.030328
324.014923	7.369094
325.015900	4.827223
326.016876	4.316792
327.017853	4.433027
328.018829	-2.504492
329.019806	-2.302418
330.020782	-1.299508
331.021759	-0.967979
332.022736	2.274903
333.023712	1.093851
334.024689	3.045917
335.025665	0.818885
336.026642	0.008398
337.027618	0.677195
338.028595	-3.455548
339.029572	-1.631347
340.030548	-2.412265
341.031525	-1.726414
342.032501	-0.887307
343.033478	2.603673
344.034454	-2.230235
345.035431	-6.673260
346.036407	1.363436
347.037384	2.091973
348.038361	-5.730142
349.039337	-5.125825
350.040314	-1.850201
351.041290	-7.345749
352.042267	-10.403021
353.043243	-5.443191
354.044220	-4.708976
355.045197	-6.758353
356.046173	-6.392938
357.047150	-1.024198
358.048126	2.960500
359.049103	-1.911663
360.050079	-4.778968
361.051056	-4.318279
362.052032	-1.992695
363.053009	-0.179268
364.053986	-1.931044
365.054962	-8.136412
366.055939	-10.236410
367.056915	-6.614610
368.057892	-5.087897
369.058868	-7.418472
370.059845	-6.391459
371.060822	-3.842682
372.061798	-2.839659
373.062775	-0.573426
374.063751	-1.737949
375.064728	-1.834589
376.065704	-4.162788
377.066681	-0.068084
378.067657	0.791567
379.068634	-2.869771
380.069611	-1.622333
381.070587	0.821853
382.071564	-1.161028
383.072540	-1.342201
384.073517	0.136986
385.074493	-0.908902
386.075470	0.902187
387.076447	1.467358
388.077423	0.007270
389.078400	-0.431121
390.079376	-0.828642
391.080353	-1.410689
392.081329	-3.213661
393.082306	-4.938924
394.083282	-1.755906
395.084259	0.142962
396.085236	-1.455435
397.086212	1.654640
398.087189	-0.075527
399.088165	-2.556180
400.089142	-2.382173
401.090118	-3.752792
402.091095	-4.431973
403.092072	-4.459240
404.093048	-2.555426
405.094025	-3.881289
406.095001	-4.956325
407.095978	-3.144949
408.096954	-1.288183
409.097931	-2.000418
410.098907	-2.929399
411.099884	-0.931483
412.100861	-0.873725
413.101837	-2.460782
414.102814	-1.335191
415.103790	-4.359460
416.104767	-6.810772
417.105743	-7.464406
418.106720	-5.476194
419.107697	-5.137133
420.108673	-5.403388
421.109650	-2.255313
422.110626	1.468246
423.111603	0.006826
424.112579	-1.198677
425.113556	-0.088414
426.114532	-1.831023
427.115509	-2.204876
428.116486	-3.470509
429.117462	-4.507965
430.118439	-4.303957
431.119415	-4.142129
432.120392	-4.863074
433.121368	-4.032060
434.122345	-3.638367
435.123322	-2.393955
436.124298	-0.175746
437.125275	0.134604
438.126251	0.279207
439.127228	1.392651
440.128204	-0.710357
441.129181	-1.051823
442.130157	-0.293450
443.131134	-1.259687
444.132111	-1.976732
445.133087	-0.793078
446.134064	-1.952512
447.135040	-2.518288
448.136017	-1.939021
449.136993	-2.649205
450.137970	-2.673722
451.138947	-2.132621
452.139923	-2.440254
453.140900	-2.517025
454.141876	-1.880961
455.142853	-1.526308
456.143829	-1.306716
457.144806	-0.043396
458.145782	-0.683697
459.146759	-1.376825
460.147736	-1.691251
461.148712	-2.900376
462.149689	-3.564331
463.150665	-3.231881
464.151642	-3.128198
465.152618	-2.457780
466.153595	-2.689309
467.154572	-3.108260
468.155548	-3.165930
469.156525	-3.476667
470.157501	-3.104187
471.158478	-2.504208
472.159454	-1.923176
473.160431	-0.785428
474.161407	-0.586116
475.162384	-0.011782
476.163361	0.350920
477.164337	0.603526
478.165314	0.485099
479.166290	0.333349
480.167267	0.280733
481.168243	-0.035548
482.169220	-1.244612
483.170197	-1.216544
484.171173	-1.771211
485.172150	-1.531919
486.173126	-1.346123
487.174103	-1.351184
488.175079	-0.242618
489.176056	-0.039053
490.177032	-0.381331
491.178009	-1.049820
492.178986	-0.514971
493.179962	-1.653600
494.180939	-2.694441
495.181915	-2.010262
496.182892	-2.235518
497.183868	-2.141315
498.184845	-1.971955
499.185822	-1.252820
500.186798	-1.010475
501.187775	-0.630339
502.188751	-0.981868
503.189728	-0.434606
504.190704	-0.056649
505.191681	-0.569581
506.192657	0.059712
507.193634	0.236663
508.194611	0.013864
509.195587	0.003527
510.196564	0.789871
511.197540	0.997249
512.198486	0.681099
513.199463	0.983526
514.200439	0.682539
515.201416	0.146790
516.202393	-0.165572
517.203369	-0.345219
518.204346	-0.438930
519.205322	-0.744419
520.206299	-0.598741
521.207275	-0.307930
522.208252	-0.277973
523.209229	-0.451387
524.210205	-0.165326
525.211182	-0.172397
526.212158	-0.818846
527.213135	-0.571012
528.214111	-0.580262
529.215088	-0.592437
530.216064	-0.687527
531.217041	-0.640194
532.218018	-0.539234
533.218994	-0.490195
534.219971	-0.362725
535.220947	-0.087752
536.221924	0.257432
537.222900	0.743641
538.223877	0.917009
539.224854	1.138313
540.225830	1.062018
541.226807	1.011724
542.227783	0.773872
543.228760	0.803921
544.229736	0.790104
545.230713	1.080982
546.231689	1.240928
547.232666	0.681149
548.233643	1.092309
549.234619	0.435907
550.235596	0.675802
551.236572	0.470126
552.237549	0.420499
553.238525	-0.133547
554.239502	-0.131485
555.240479	-0.179629
556.241455	-0.575826
557.242432	-0.254405
558.243408	-0.316422
559.244385	0.595528
560.245361	0.629736
561.246338	1.488853
562.247314	1.174577
563.248291	1.629844
564.249268	1.435235
565.250244	0.887716
566.251221	1.051529
567.252197	0.541651
568.253174	0.764667
569.254150	0.915886
570.255127	0.964630
571.256104	1.017483
572.257080	1.288933
573.258057	1.386500
574.259033	1.390789
575.260010	1.119474
576.260986	1.315212
577.261963	1.293018
578.262939	0.993363
579.263916	0.774517
580.264893	0.959476
581.265869	0.529289
582.266846	0.278983
583.267822	0.588797
584.268799	0.230494
585.269775	-0.178522
586.270752	-0.190406
587.271729	-0.329637
588.272705	-0.667086
589.273682	-0.041126
590.274658	0.072418
591.275635	0.298553
592.276611	0.341599
593.277588	0.126985
594.278564	0.628730
595.279541	1.104833
596.280518	0.659775
597.281494	0.421958
598.282471	0.432317
599.283447	0.786772
600.284424	1.125126
601.285400	1.190634
602.286377	1.536212
603.287354	1.296880
604.288330	1.750446
605.289307	1.127887
606.290283	1.432262
607.291260	1.006546
608.292236	1.371342
609.293213	0.961873
610.294189	1.438997
611.295166	1.330580
612.296143	1.149780
613.297119	1.238348
614.298096	0.826520
615.299072	0.949198
616.300049	0.622801
617.301025	0.734578
618.302002	0.880803
619.302979	0.685955
620.303955	0.806836
621.304932	1.015425
622.305908	1.128871
623.306885	1.110919
624.307861	1.146016
625.308838	1.212065
626.309814	0.966841
627.310791	1.037124
628.311768	0.907968
629.312744	1.057760
630.313721	1.079319
631.314697	1.102821
632.315674	1.398370
633.316650	1.342442
634.317627	1.244931
635.318604	1.042241
636.319580	0.927949
637.320557	0.531708
638.321533	0.346294
639.322510	0.156660
640.323486	0.264211
641.324463	-0.002884
642.325439	0.230396
643.326416	0.068353
644.327393	0.255537
645.328369	0.057577
646.329346	0.165256
647.330322	0.157319
648.331299	0.133504
649.332275	0.123483
650.333252	0.024532
651.334229	0.326425
652.335205	-0.017039
653.336182	0.190197
654.337158	0.084842
655.338135	0.286832
656.339111	0.063632
657.340088	0.295093
658.341064	0.260905
659.342041	0.432972
660.343018	0.257066
661.343994	0.512937
662.344971	0.579901
663.345947	0.611534
664.346924	0.646841
665.347900	0.705205
666.348877	0.842501
667.349854	0.463729
668.350830	0.600916
669.351807	0.276974
670.352783	0.525967
671.353760	0.057717
672.354736	0.397920
673.355713	0.193101
674.356689	0.258637
675.357666	0.187542
676.358643	0.173412
677.359619	0.314923
678.360596	0.160734
679.361572	0.281768
680.362549	0.213968
681.363525	0.394643
682.364502	0.120327
683.365479	0.336120
684.366455	0.157020
685.367432	0.312910
686.368408	0.103549
687.369385	0.190774
688.370361	0.102232
689.371338	0.097322
690.372314	0.068370
691.373291	0.061175
692.374268	0.250517
693.375244	0.165104
694.376221	0.397331
695.377197	0.297677
696.378174	0.507580
697.379150	0.366384
698.380127	0.451013
699.381104	0.407562
700.382080	0.537770
701.383057	0.523073
702.384033	0.587688
703.385010	0.645269
704.385986	0.537216
705.386963	0.521922
706.387939	0.266062
707.388916	0.227743
708.389893	-0.052498
709.390869	-0.087931
710.391846	-0.275438
711.392822	-0.244384
712.393799	-0.240502
713.394775	-0.241894
714.395752	-0.144422
715.396729	-0.047447
716.397705	-0.025644
717.398682	0.043613
718.399658	-0.023875
719.400635	0.048722
720.401611	-0.009038
721.402588	0.034219
722.403564	0.150533
723.404541	0.182909
724.405518	0.428294
725.406494	0.446577
726.407471	0.742725
727.408447	0.727141
728.409424	0.917832
729.410400	0.830707
730.411377	0.925884
731.412354	0.800763
732.413330	0.794211
733.414307	0.719848
734.415283	0.715238
735.416260	0.692438
736.417236	0.684607
737.418213	0.731922
738.419189	0.625897
739.420166	0.706107
740.421143	0.534990
741.422119	0.621389
742.423096	0.374280
743.424072	0.530401
744.425049	0.291769
745.426025	0.441506
746.427002	0.280955
747.427979	0.423374
748.428955	0.356571
749.429932	0.373167
750.430908	0.432466
751.431885	0.348241
752.432861	0.453897
753.433838	0.278291
754.434814	0.435781
755.435791	0.253708
756.436768	0.432697
757.437744	0.216291
758.438721	0.475404
759.439697	0.347874
760.440674	0.462401
761.441650	0.464924
762.442627	0.521976
763.443604	0.528946
764.444580	0.457659
765.445557	0.511737
766.446533	0.406004
767.447510	0.451380
768.448486	0.359696
769.449463	0.446775
770.450439	0.452259
771.451416	0.517617
772.452393	0.512295
773.453369	0.646430
774.454346	0.616046
775.455322	0.705924
776.456299	0.649872
777.457275	0.762659
778.458252	0.692957
779.459229	0.757838
780.460205	0.718736
781.461182	0.797352
782.462158	0.754488
783.463135	0.769424
784.464111	0.757610
785.465088	0.711809
786.466064	0.713173
787.467041	0.565653
788.468018	0.580374
789.468994	0.417739
790.469971	0.432366
791.470947	0.243205
792.471924	0.317949
793.472900	0.230251
794.473877	0.289854
795.474854	0.304064
796.475830	0.391203
797.476807	0.473810
798.477783	0.542528
799.478760	0.613708
800.479736	0.681502
801.480713	0.721647
802.481689	0.696894
803.482666	0.679736
804.483643	0.649346
805.484619	0.605777
806.485596	0.527421
807.486572	0.516530
808.487549	0.442754
809.488525	0.438748
810.489502	0.321840
811.490479	0.364117
812.491455	0.295161
813.492432	0.335920
814.493408	0.116562
815.494385	0.101877
816.495361	-0.078572
817.496338	0.046885
818.497314	0.064459
819.498291	0.244031
820.499268	0.197519
821.500244	0.122669
822.501221	-0.029319
823.502197	0.124139
824.503174	0.215432
825.504150	0.312875
826.505127	0.323830
827.506104	0.191564
828.507080	0.142021
829.508057	0.072680
830.509033	0.094957
831.510010	0.240866
832.510986	0.276544
833.511963	0.361456
834.512939	0.448740
835.513916	0.378040
836.514893	0.410884
837.515869	0.302652
838.516846	0.320558
839.517822	0.283967
840.518799	0.350765
841.519775	0.294006
842.520752	0.437717
843.521729	0.422986
844.522705	0.421142
845.523682	0.433061
846.524658	0.395921
847.525635	0.378493
848.526611	0.267075
849.527588	0.307235
850.528564	0.161788
851.529541	0.222564
852.530518	0.057501
853.531494	0.110134
854.532471	-0.018831
855.533447	0.012745
856.534424	-0.090637
857.535400	-0.067758
858.536377	-0.074878
859.537354	-0.075129
860.538330	-0.015246
861.539307	0.026729
862.540283	0.316419
863.541260	0.395309
864.542236	0.467719
865.543213	0.414944
866.544189	0.337396
867.545166	0.197388
868.546143	0.063889
869.547119	-0.083272
870.548096	-0.041393
871.549072	0.130767
872.550049	0.138650
873.551025	0.344250
874.552002	0.425529
875.552979	0.437716
876.553955	0.251131
877.554932	0.219428
878.555908	-0.022399
879.556885	-0.044432
880.557861	-0.052039
881.558838	-0.062444
882.559814	0.016659
883.560791	-0.038657
884.561768	0.105590
885.562744	0.163891
886.563721	0.165722
887.564697	0.272012
888.565674	0.200177
889.566650	0.238642
890.567627	0.189126
891.568604	0.224244
892.569580	0.208687
893.570557	0.271337
894.571533	0.253401
895.572510	0.246276
896.573486	0.290024
897.574463	0.216772
898.575439	0.257276
899.576416	0.177969
900.577393	0.241926
901.578369	0.222268
902.579346	0.253828
903.580322	0.313838
904.581299	0.329160
905.582275	0.399073
906.583252	0.365807
907.584229	0.425181
908.585205	0.387298
909.586182	0.407325
910.587158	0.370675
911.588135	0.367802
912.589111	0.414384
913.590088	0.345231
914.591064	0.438251
915.592041	0.358368
916.593018	0.450881
917.593994	0.327201
918.594971	0.364359
919.595947	0.264593
920.596924	0.263411
921.597900	0.167488
922.598877	0.155990
923.599854	0.161506
924.600830	0.126649
925.601807	0.188493
926.602783	0.143386
927.603760	0.267841
928.604736	0.180172
929.605713	0.279652
930.606689	0.203935
931.607666	0.319869
932.608643	0.222434
933.609619	0.338577
934.610596	0.299275
935.611572	0.403910
936.612549	0.409850
937.613525	0.449162
938.614502	0.527414
939.615479	0.510720
940.616455	0.557635
941.617432	0.512161
942.618408	0.566614
943.619385	0.487162
944.620361	0.539097
945.621338	0.443231
946.622314	0.534651
947.623291	0.434455
948.624268	0.491644
949.625244	0.418491
950.626221	0.471022
951.627197	0.379311
952.628174	0.399650
953.629150	0.351677
954.630127	0.341028
955.631104	0.338467
956.632080	0.276709
957.633057	0.338533
958.634033	0.276957
959.635010	0.317318
960.635986	0.249618
961.636963	0.319362
962.637939	0.228934
963.638916	0.282855
964.639893	0.218198
965.640869	0.264846
966.641846	0.256695
967.642822	0.264962
