# id:                 9
# size:               9000
# coupling constant:  1.000000E+00
# inhomogenity Delta: 1.500000E+00
0.010000	562.756104
1.009999	603.793091
2.009999	727.366638
3.009998	949.390808
4.009997	1294.735840
5.010020	1796.515869
6.010043	2480.515625
7.010066	3328.983887
8.010088	4200.165527
9.010111	4785.869141
10.010134	4780.635254
11.010157	4201.659668
12.010180	3370.687500
13.010202	2572.398438
14.010225	1942.673706
15.010248	1506.563721
16.010271	1244.171265
17.010294	1129.075684
18.010317	1128.792358
19.010340	1190.794434
20.010363	1244.473999
21.010386	1223.188721
22.010408	1099.755127
23.010431	911.600220
24.010454	724.429443
25.010477	574.106445
26.010500	476.192047
27.010523	427.963013
28.010546	412.881134
29.010569	380.774750
30.010592	309.315094
31.010614	227.384827
32.010635	155.244812
33.010468	107.010658
34.010300	79.335022
35.010132	79.171280
36.009964	110.362480
37.009796	137.273026
38.009628	145.687164
39.009460	133.474884
40.009293	111.985069
41.009125	88.519516
42.008957	75.202927
43.008789	77.096870
44.008621	82.167892
45.008453	91.668045
46.008286	96.586624
47.008118	101.614861
48.007950	93.748268
49.007782	77.210052
50.007614	76.110504
51.007446	74.811752
52.007278	71.783012
53.007111	94.338394
54.006943	108.274612
55.006775	97.592422
56.006607	72.053688
57.006439	51.472179
58.006271	39.951717
59.006104	20.528278
60.005936	20.265860
61.005768	37.498051
62.005600	40.033455
63.005432	31.331648
64.005264	27.647816
65.005478	28.750896
66.005692	30.518997
67.005905	29.581724
68.006119	13.641514
69.006332	-4.827517
70.006546	4.379409
71.006760	15.213802
72.006973	6.952908
73.007187	-2.708696
74.007401	8.059234
75.007614	10.580087
76.007828	4.020107
77.008041	-13.952827
78.008255	-21.502987
79.008469	-23.729025
80.008682	-27.848269
81.008896	-27.462385
82.009109	-23.002369
83.009323	-9.795787
84.009537	1.322444
85.009750	-7.597334
86.009964	-21.224413
87.010178	-13.777594
88.010391	3.307918
89.010605	11.206997
90.010818	10.698750
91.011032	-7.267998
92.011246	-26.402937
93.011459	-41.991581
94.011673	-26.972816
95.011887	0.181499
96.012100	42.375088
97.012314	68.192863
98.012527	68.503647
99.012741	38.556232
100.012955	5.575554
101.013168	-18.642145
102.013382	-45.876781
103.013596	-59.542301
104.013809	-67.844193
105.014023	-65.847618
106.014236	-56.087860
107.014450	-70.962318
108.014664	-90.537292
109.014877	-80.440361
110.015091	-76.959808
111.015305	-87.140625
112.015518	-91.310944
113.015732	-105.643608
114.015945	-123.556458
115.016159	-115.941879
116.016373	-90.504623
117.016586	-67.524971
118.016800	-79.887917
119.017014	-125.685173
120.017227	-151.308685
121.017441	-142.159363
122.017654	-104.462929
123.017868	-66.162468
124.018082	-9.365134
125.018295	17.821449
126.018509	2.814324
127.018723	-15.836178
128.018921	-5.398454
129.018372	-3.397050
130.017822	-43.815102
131.017273	-53.053104
132.016724	-40.465946
133.016174	-34.540588
134.015625	-25.574337
135.015076	-6.740218
136.014526	19.265779
137.013977	41.251328
138.013428	34.671089
139.012878	-14.116260
140.012329	-19.211224
141.011780	6.915842
142.011230	6.677668
143.010681	-6.981187
144.010132	-29.425169
145.009583	-34.931469
146.009033	-26.381517
147.008484	-12.291863
148.007935	-33.675472
149.007385	-20.590284
150.006836	-10.488605
151.006287	11.542410
152.005737	4.486872
153.005188	-6.066579
154.004639	8.438132
155.004089	42.000866
156.003540	76.151772
157.002991	69.506912
158.002441	32.678585
159.001892	8.365273
160.001343	-20.552290
161.000793	-33.997845
162.000244	-24.752422
162.999695	-13.579891
163.999146	-8.753833
164.998596	7.768289
165.998047	13.689636
166.997498	-0.024734
167.996948	-21.823549
168.996399	-30.091486
169.995850	-17.600414
170.995300	8.874357
171.994751	40.122940
172.994202	54.192924
173.993652	45.592827
174.993103	39.527573
175.992554	30.271173
176.992004	28.698664
177.991455	10.885187
178.990906	-1.609089
179.990356	-13.951063
180.989807	4.671130
181.989258	8.591100
182.988708	4.554007
183.988159	-6.271986
184.987610	-17.549242
185.987061	-36.535774
186.986511	-58.545605
187.985962	-43.953045
188.985413	-34.350624
189.984863	-9.640295
190.984314	-48.002850
191.983765	-33.595840
192.983215	4.435508
193.982666	20.273413
194.982117	5.187914
195.981567	17.567299
196.981018	-11.912118
197.980469	-23.471926
198.979919	-22.894026
199.979370	-24.751408
200.978821	-19.210886
201.978271	-11.433317
202.977722	-12.192539
203.977173	-18.519833
204.976624	-9.012787
205.976074	-13.202968
206.975525	-11.534507
207.974976	-14.703472
208.974426	-38.485970
209.973877	-6.028170
210.973328	-10.998014
211.972778	15.384194
212.972229	-5.997556
213.971680	-8.140368
214.971130	-23.003696
215.970581	-3.848792
216.970032	-9.734509
217.969482	-17.071329
218.968933	-21.793774
219.968384	-27.741056
220.967834	-35.055862
221.967285	-34.107956
222.966736	-38.777264
223.966187	-46.224709
224.965637	-44.626625
225.965088	-20.958136
226.964539	9.197627
227.963989	21.161188
228.963440	30.860250
229.962891	17.680706
230.962341	17.142759
231.961792	6.993548
232.961243	-8.663264
233.960693	-9.636458
234.960144	-10.401267
235.959595	-8.225820
236.959045	-3.755491
237.958496	4.336576
238.957947	14.195007
239.957397	4.828634
240.956848	-5.466735
241.956299	5.777055
242.955750	7.660780
243.955200	17.879513
244.954651	20.058762
245.954102	6.698006
246.953552	-0.048063
247.953003	9.437797
248.952454	6.466816
249.951904	10.199315
250.951355	12.887548
251.950806	-1.133802
252.950256	-12.557627
253.949707	-16.266182
254.949158	-24.495928
255.948608	-14.515325
256.949493	9.702839
257.950470	4.511923
258.951447	7.321022
259.952423	17.975979
260.953400	11.373410
261.954376	-8.895832
262.955353	-6.168161
263.956329	-3.676742
264.957306	-2.211850
265.958282	-14.166571
266.959259	-1.619969
267.960236	0.711125
268.961212	-5.478167
269.962189	-4.450809
270.963165	6.931782
271.964142	3.230206
272.965118	5.611014
273.966095	1.949019
274.967072	5.082184
275.968048	7.685303
276.969025	3.221557
277.970001	-1.803780
278.970978	-3.502074
279.971954	-4.393908
280.972931	-5.347273
281.973907	7.297144
282.974884	16.738569
283.975861	19.559187
284.976837	22.952974
285.977814	28.008354
286.978790	24.657484
287.979767	22.109739
288.980743	7.900314
289.981720	-5.628992
290.982697	-3.146236
291.983673	-5.362813
292.984650	-6.486232
293.985626	7.389735
294.986603	8.728117
295.987579	-2.565659
296.988556	0.603453
297.989532	4.490140
298.990509	1.222435
299.991486	6.981802
300.992462	7.808970
301.993439	13.616203
302.994415	-1.231983
303.995392	1.769282
304.996368	10.211946
305.997345	6.237963
306.998322	6.736470
307.999298	18.091267
309.000275	14.632459
310.001251	14.450604
311.002228	13.073361
312.003204	10.883982
313.004181	4.743914
314.005157	0.395697
315.006134	1.252494
316.007111	-0.483178
317.008087	-3.613684
318.009064	-5.506365
319.010040	-6.506033
320.011017	-2.106777
321.011993	5.427553
322.012970	3.690988
323.013947	8.934659
324.014923	7.915730
325.015900	3.181013
326.016876	-3.221777
327.017853	-5.356992
328.018829	-5.316383
329.019806	-4.562092
330.020782	-6.673597
331.021759	-11.092685
332.022736	-7.696596
333.023712	-5.167267
334.024689	-4.195708
335.025665	-0.613553
336.026642	1.938186
337.027618	-1.294758
338.028595	2.076650
339.029572	7.303426
340.030548	11.622618
341.031525	7.990763
342.032501	3.342885
343.033478	7.807594
344.034454	9.250487
345.035431	5.157563
346.036407	1.286153
347.037384	1.124358
348.038361	-2.113389
349.039337	-1.616129
350.040314	2.994761
351.041290	7.246400
352.042267	4.192808
353.043243	10.341567
354.044220	9.582722
355.045197	8.527610
356.046173	6.414402
357.047150	1.964807
358.048126	2.266875
359.049103	2.847524
360.050079	0.083538
361.051056	0.442329
362.052032	-0.631913
363.053009	-3.802593
364.053986	-2.781441
365.054962	-1.901685
366.055939	-5.618519
367.056915	-4.655407
368.057892	1.223116
369.058868	0.973151
370.059845	-2.926034
371.060822	0.906145
372.061798	0.954219
373.062775	0.261545
374.063751	2.124636
375.064728	2.248833
376.065704	1.021489
377.066681	-0.208705
378.067657	-0.472805
379.068634	-0.010059
380.069611	2.693027
381.070587	1.229436
382.071564	-0.606561
383.072540	1.222133
384.073517	2.557061
385.074493	1.998896
386.075470	2.331126
387.076447	3.443149
388.077423	3.088158
389.078400	3.767806
390.079376	2.627228
391.080353	2.355604
392.081329	5.911305
393.082306	2.095990
394.083282	-2.397844
395.084259	-0.648132
396.085236	0.935830
397.086212	0.036741
398.087189	-0.550264
399.088165	0.897056
400.089142	-0.243093
401.090118	-1.815617
402.091095	0.432512
403.092072	-1.821400
404.093048	-4.000638
405.094025	-0.935336
406.095001	1.242891
407.095978	-0.099462
408.096954	0.323535
409.097931	1.216434
410.098907	1.819231
411.099884	5.006176
412.100861	3.743464
413.101837	2.443752
414.102814	3.689402
415.103790	0.946691
416.104767	-2.860027
417.105743	-2.787510
418.106720	-0.229236
419.107697	-1.458108
420.108673	-0.709628
421.109650	1.612341
422.110626	1.514211
423.111603	1.795591
424.112579	2.367880
425.113556	0.587932
426.114532	-1.456532
427.115509	-0.945758
428.116486	0.088265
429.117462	0.537457
430.118439	2.196761
431.119415	2.618085
432.120392	0.073970
433.121368	-0.333371
434.122345	0.638515
435.123322	0.665264
436.124298	-0.670655
437.125275	-0.312503
438.126251	-0.570845
439.127228	-0.891349
440.128204	-1.019328
441.129181	-0.483957
442.130157	-1.177384
443.131134	-0.296261
444.132111	-0.171242
445.133087	2.201255
446.134064	2.350455
447.135040	1.408859
448.136017	1.689662
449.136993	2.526299
450.137970	2.057194
451.138947	2.193833
452.139923	2.796656
453.140900	2.374223
454.141876	2.654194
455.142853	1.404230
456.143829	0.409095
457.144806	-1.002924
458.145782	0.624879
459.146759	-0.127793
460.147736	1.045606
461.148712	1.427393
462.149689	0.126547
463.150665	0.704731
464.151642	0.437796
465.152618	-0.016254
466.153595	0.009195
467.154572	0.444966
468.155548	0.404460
469.156525	0.543375
470.157501	0.769234
471.158478	1.487561
472.159454	1.389069
473.160431	1.119308
474.161407	1.809551
475.162384	1.439266
476.163361	0.974722
477.164337	0.427226
478.165314	0.360790
479.166290	0.947143
480.167267	0.366041
481.168243	-0.480122
482.169220	-0.031034
483.170197	-0.399820
484.171173	-1.085493
485.172150	-0.096974
486.173126	0.811237
487.174103	0.277771
488.175079	-0.005963
489.176056	0.521421
490.177032	0.789112
491.178009	1.586556
492.178986	2.176010
493.179962	2.192640
494.180939	2.071884
495.181915	1.404300
496.182892	1.125996
497.183868	1.272079
498.184845	1.923382
499.185822	1.299763
500.186798	1.711218
501.187775	1.478359
502.188751	1.090288
503.189728	0.498965
504.190704	0.712072
505.191681	-0.005777
506.192657	-0.074677
507.193634	-0.296461
508.194611	-0.088703
509.195587	0.383946
510.196564	0.128650
511.197540	0.777956
512.198486	0.246593
513.199463	0.026469
514.200439	0.411306
515.201416	0.685594
516.202393	-0.159462
517.203369	0.240048
518.204346	-0.179880
519.205322	-1.135143
520.206299	-1.494340
521.207275	-1.013064
522.208252	-0.379793
523.209229	-0.240073
524.210205	0.117261
525.211182	0.486210
526.212158	0.682838
527.213135	0.274884
528.214111	1.108590
529.215088	0.807676
530.216064	0.787263
531.217041	0.926962
532.218018	1.197240
533.218994	1.348899
534.219971	1.819266
535.220947	2.074869
536.221924	3.134438
537.222900	2.851053
538.223877	3.049353
539.224854	3.106555
540.225830	3.196893
541.226807	2.558511
542.227783	2.042709
543.228760	2.067091
544.229736	1.480812
545.230713	1.841426
546.231689	1.317885
547.232666	1.721901
548.233643	1.714589
549.234619	1.777550
550.235596	1.968269
551.236572	2.596519
552.237549	2.200771
553.238525	2.196660
554.239502	2.784354
555.240479	2.374509
556.241455	2.463002
557.242432	2.441726
558.243408	2.444138
559.244385	1.937162
560.245361	1.520468
561.246338	2.149971
562.247314	2.334268
563.248291	2.184717
564.249268	2.669040
565.250244	2.892934
566.251221	2.896512
567.252197	2.147092
568.253174	2.096747
569.254150	1.953643
570.255127	1.654132
571.256104	1.977671
572.257080	1.992539
573.258057	2.988384
574.259033	2.872442
575.260010	3.110682
576.260986	2.905643
577.261963	2.584049
578.262939	1.786522
579.263916	1.618779
580.264893	2.095894
581.265869	1.821595
582.266846	2.224407
583.267822	2.408728
584.268799	2.601329
585.269775	2.418207
586.270752	1.759438
587.271729	2.031295
588.272705	2.234456
589.273682	1.846710
590.274658	2.068005
591.275635	2.243170
592.276611	2.301898
593.277588	2.104020
594.278564	2.146171
595.279541	2.373944
596.280518	2.302331
597.281494	2.476237
598.282471	2.616045
599.283447	2.862879
600.284424	3.097538
601.285400	2.801515
602.286377	2.982986
603.287354	3.125141
604.288330	2.955495
605.289307	2.701388
606.290283	2.855531
607.291260	2.908874
608.292236	2.903203
609.293213	2.744222
610.294189	2.624627
611.295166	2.676875
612.296143	2.592691
613.297119	2.212909
614.298096	2.562870
615.299072	2.333156
616.300049	2.294674
617.301025	1.915676
618.302002	1.800712
619.302979	1.656798
620.303955	1.220279
621.304932	1.408140
622.305908	1.343810
623.306885	1.652094
624.307861	1.549749
625.308838	1.903998
626.309814	2.049702
627.310791	2.173269
628.311768	2.014787
629.312744	2.017131
630.313721	2.054700
631.314697	1.738566
632.315674	1.816028
633.316650	1.593753
634.317627	2.021483
635.318604	1.757494
636.319580	1.911090
637.320557	2.113242
638.321533	2.190965
639.322510	2.178224
640.323486	2.095002
641.324463	2.267618
642.325439	2.213445
643.326416	2.190792
644.327393	2.123112
645.328369	2.277548
646.329346	2.126629
647.330322	2.023380
648.331299	1.968458
649.332275	1.976299
650.333252	1.835283
651.334229	1.689573
652.335205	1.632512
653.336182	1.677492
654.337158	1.559791
655.338135	1.494195
656.339111	1.503645
657.340088	1.641957
658.341064	1.549688
659.342041	1.428015
660.343018	1.645204
661.343994	1.581489
662.344971	1.658634
663.345947	1.705492
664.346924	1.980560
665.347900	2.140723
666.348877	2.162003
667.349854	2.337910
668.350830	2.429996
669.351807	2.498699
670.352783	2.409638
671.353760	2.461756
672.354736	2.428516
673.355713	2.454674
674.356689	2.298269
675.357666	2.335829
676.358643	2.347384
677.359619	2.279263
678.360596	2.159829
679.361572	2.115791
680.362549	2.030877
681.363525	1.613241
682.364502	1.771803
683.365479	1.555649
684.366455	1.938294
685.367432	2.164932
686.368408	2.332718
687.369385	2.776156
688.370361	2.894070
689.371338	2.880611
690.372314	2.551557
691.373291	2.870512
692.374268	2.339046
693.375244	2.523856
694.376221	2.312438
695.377197	2.602371
696.378174	2.620581
697.379150	2.850992
698.380127	2.821674
699.381104	2.932672
700.382080	2.910779
701.383057	2.674250
702.384033	2.585823
703.385010	2.359251
704.385986	2.157785
705.386963	1.924907
706.387939	2.012632
707.388916	1.911115
708.389893	1.977791
709.390869	1.671178
710.391846	1.710590
711.392822	1.681110
712.393799	1.630772
713.394775	1.526369
714.395752	1.725819
715.396729	1.801058
716.397705	1.909673
717.398682	2.003905
718.399658	2.164647
719.400635	2.411707
720.401611	2.346271
721.402588	2.473506
722.403564	2.552097
723.404541	2.579556
724.405518	2.486961
725.406494	2.498736
726.407471	2.619279
727.408447	2.514542
728.409424	2.468618
729.410400	2.392030
730.411377	2.400151
731.412354	2.272814
732.413330	2.114486
733.414307	2.201178
734.415283	2.143933
735.416260	2.213412
736.417236	2.119486
737.418213	2.244538
738.419189	2.262994
739.420166	2.226928
740.421143	2.198523
741.422119	2.253876
742.423096	2.257623
743.424072	2.199984
744.425049	2.173911
745.426025	2.241111
746.427002	2.233212
747.427979	2.172147
748.428955	2.174436
749.429932	2.215567
750.430908	2.228226
751.431885	2.088404
752.432861	2.155890
753.433838	2.140957
754.434814	2.193441
755.435791	2.069546
756.436768	2.158900
757.437744	2.181740
758.438721	2.186615
759.439697	2.051620
760.440674	2.118018
761.441650	2.132719
762.442627	2.003252
763.443604	1.944291
764.444580	1.978852
765.445557	1.998940
766.446533	1.849460
767.447510	1.874892
768.448486	1.880740
769.449463	1.936517
770.450439	1.789430
771.451416	1.868083
772.452393	1.938059
773.453369	1.944970
774.454346	1.887726
775.455322	2.021764
776.456299	2.083170
777.457275	2.103672
778.458252	2.054708
779.459229	2.172769
780.460205	2.204341
781.461182	2.151714
782.462158	2.109859
783.463135	2.167459
784.464111	2.152763
785.465088	2.049359
786.466064	2.054681
787.467041	2.060248
788.468018	2.068639
789.468994	1.970632
790.469971	2.010191
791.470947	1.993632
792.471924	2.042060
793.472900	1.911269
794.473877	2.051798
795.474854	2.034405
796.475830	2.129264
797.476807	2.060398
798.477783	2.203406
799.478760	2.241002
800.479736	2.267819
801.480713	2.267781
802.481689	2.321980
803.482666	2.409556
804.483643	2.310039
805.484619	2.417145
806.485596	2.336467
807.486572	2.466726
808.487549	2.289742
809.488525	2.361186
810.489502	2.287632
811.490479	2.314642
812.491455	2.183517
813.492432	2.199419
814.493408	2.205024
815.494385	2.175582
816.495361	2.175228
817.496338	2.169243
818.497314	2.269993
819.498291	2.223248
820.499268	2.275634
821.500244	2.255786
822.501221	2.350241
823.502197	2.292982
824.503174	2.303552
825.504150	2.287848
826.505127	2.329514
827.506104	2.266720
828.507080	2.266971
829.508057	2.288220
830.509033	2.314546
831.510010	2.273524
832.510986	2.261340
833.511963	2.270563
834.512939	2.240579
835.513916	2.147651
836.514893	2.112772
837.515869	2.081825
838.516846	2.040720
839.517822	1.986702
840.518799	1.949904
841.519775	2.014829
842.520752	1.925066
843.521729	1.965510
844.522705	1.884524
845.523682	1.970273
846.524658	1.890174
847.525635	1.911674
848.526611	1.940635
849.527588	1.975843
850.528564	2.045835
851.529541	2.028038
852.530518	2.182143
853.531494	2.186234
854.532471	2.290298
855.533447	2.257421
856.534424	2.387290
857.535400	2.379805
858.536377	2.382593
859.537354	2.375107
860.538330	2.377964
861.539307	2.398470
862.540283	2.283163
863.541260	2.340278
864.542236	2.268791
865.543213	2.314695
866.544189	2.198965
867.545166	2.263631
868.546143	2.225733
869.547119	2.220600
870.548096	2.187495
871.549072	2.198035
872.550049	2.254742
873.551025	2.197876
874.552002	2.268590
875.552979	2.265094
876.553955	2.372593
877.554932	2.307356
878.555908	2.406427
879.556885	2.383967
880.557861	2.450500
881.558838	2.379164
882.559814	2.412286
883.560791	2.378000
884.561768	2.361290
885.562744	2.303786
886.563721	2.255211
887.564697	2.267136
888.565674	2.160133
889.566650	2.171547
890.567627	2.064460
891.568604	2.134346
892.569580	1.996931
893.570557	2.044793
894.571533	1.960751
895.572510	2.030351
896.573486	1.953349
897.574463	1.985129
898.575439	1.997764
899.576416	2.005060
900.577393	2.034628
901.578369	1.995868
902.579346	2.093883
903.580322	2.043953
904.581299	2.118877
905.582275	2.076506
906.583252	2.186512
907.584229	2.167358
908.585205	2.220590
909.586182	2.247704
910.587158	2.312166
911.588135	2.346724
912.589111	2.354616
913.590088	2.413987
914.591064	2.439106
915.592041	2.454335
916.593018	2.447857
917.593994	2.465464
918.594971	2.479551
919.595947	2.431110
920.596924	2.436168
921.597900	2.402176
922.598877	2.414360
923.599854	2.340313
924.600830	2.344213
925.601807	2.319817
926.602783	2.288935
927.603760	2.262627
928.604736	2.207474
929.605713	2.248132
930.606689	2.139503
931.607666	2.201773
932.608643	2.096609
933.609619	2.201982
934.610596	2.094965
935.611572	2.177845
936.612549	2.138335
937.613525	2.192273
938.614502	2.194708
939.615479	2.186717
940.616455	2.257939
941.617432	2.202194
942.618408	2.281424
943.619385	2.190015
944.620361	2.286099
945.621338	2.190922
946.622314	2.256638
947.623291	2.175912
948.624268	2.242428
949.625244	2.187011
950.626221	2.209075
951.627197	2.186769
952.628174	2.195632
953.629150	2.191398
954.630127	2.147553
955.631104	2.179302
956.632080	2.122999
957.633057	2.166386
958.634033	2.090442
959.635010	2.172225
960.635986	2.121060
961.636963	2.199160
962.637939	2.171192
963.638916	2.257434
964.639893	2.257663
965.640869	2.292450
966.641846	2.305318
967.642822	2.309041
968.643799	2.323027
969.644775	2.267853
970.645752	2.303793
971.646729	2.239626
972.647705	2.290694
973.648682	2.214845
