# id:                 95
# size:               9000
# coupling constant:  1.000000E+00
# inhomogenity Delta: 1.500000E+00
0.010000	567.556396
1.009999	608.928833
2.009999	733.491943
3.009998	957.227905
4.009997	1305.160522
5.010020	1810.365234
6.010043	2498.006836
7.010066	3348.317139
8.010088	4215.106445
9.010111	4787.390137
10.010134	4766.199707
11.010157	4177.584473
12.010180	3348.305908
13.010202	2555.226074
14.010225	1932.717407
15.010248	1504.174072
16.010271	1250.381104
17.010294	1146.719727
18.010317	1162.116699
19.010340	1246.364624
20.010363	1319.661987
21.010386	1303.014160
22.010408	1167.391235
23.010431	958.136414
24.010454	755.869873
25.010477	599.295288
26.010500	491.758026
27.010523	422.870087
28.010546	374.499847
29.010569	324.378021
30.010592	264.119751
31.010614	191.297180
32.010635	121.536125
33.010468	84.109207
34.010300	71.289444
35.010132	78.765900
36.009964	103.293762
37.009796	132.897064
38.009628	137.652649
39.009460	123.218002
40.009293	121.445824
41.009125	117.439575
42.008957	91.164543
43.008789	63.494129
44.008621	54.735394
45.008453	73.033081
46.008286	83.109230
47.008118	85.219109
48.007950	109.252884
49.007782	128.431580
50.007614	124.768990
51.007446	113.987663
52.007278	104.382484
53.007111	102.515404
54.006943	115.012695
55.006775	120.547523
56.006607	109.415161
57.006439	92.394989
58.006271	61.103260
59.006104	54.345009
60.005936	57.232361
61.005768	60.223358
62.005600	65.472366
63.005432	83.869705
64.005264	94.926903
65.005478	93.726822
66.005692	77.204155
67.005905	47.343533
68.006119	27.428404
69.006332	17.409748
70.006546	15.992845
71.006760	21.073351
72.006973	24.090746
73.007187	25.087467
74.007401	24.870955
75.007614	14.997028
76.007828	-2.224883
77.008041	-7.852550
78.008255	-0.200415
79.008469	21.281828
80.008682	41.101784
81.008896	47.636887
82.009109	50.611900
83.009323	46.236923
84.009537	61.883785
85.009750	78.532974
86.009964	101.231476
87.010178	113.890160
88.010391	90.360535
89.010605	40.644714
90.010818	0.884195
91.011032	-26.988071
92.011246	-24.925760
93.011459	-18.089951
94.011673	-28.970869
95.011887	-24.850481
96.012100	-28.126520
97.012314	-20.407236
98.012527	-0.009419
99.012741	3.022314
100.012955	22.577305
101.013168	38.113960
102.013382	37.244785
103.013596	37.621918
104.013809	22.989712
105.014023	3.971346
106.014236	1.823364
107.014450	33.091503
108.014664	61.810974
109.014877	70.393181
110.015091	70.778023
111.015305	59.045734
112.015518	59.653957
113.015732	62.687061
114.015945	70.726326
115.016159	87.108055
116.016373	90.324203
117.016586	103.160133
118.016800	98.822327
119.017014	55.908913
120.017227	11.365670
121.017441	-3.393971
122.017654	-4.231870
123.017868	-21.974249
124.018082	-29.931650
125.018295	-22.278769
126.018509	5.746643
127.018723	14.317922
128.018921	6.480620
129.018372	-19.114716
130.017822	-63.151630
131.017273	-87.691956
132.016724	-94.497398
133.016174	-100.763832
134.015625	-103.474144
135.015076	-80.248856
136.014526	-51.040489
137.013977	-20.306887
138.013428	1.219900
139.012878	-4.144471
140.012329	-18.164820
141.011780	-4.422061
142.011230	36.504864
143.010681	44.582920
144.010132	39.067608
145.009583	40.459354
146.009033	26.150244
147.008484	40.078049
148.007935	54.875019
149.007385	43.795376
150.006836	35.595943
151.006287	30.021091
152.005737	-2.057625
153.005188	-20.873659
154.004639	-46.739838
155.004089	-49.212856
156.003540	-5.609711
157.002991	-4.243708
158.002441	-9.295227
159.001892	-9.918404
160.001343	-11.576209
161.000793	2.158402
162.000244	10.883991
162.999695	25.334667
163.999146	52.590809
164.998596	69.721275
165.998047	70.359077
166.997498	67.321068
167.996948	67.815292
168.996399	42.703732
169.995850	41.495789
170.995300	28.322807
171.994751	22.946817
172.994202	4.272130
173.993652	-7.371249
174.993103	5.610686
175.992554	23.731064
176.992004	17.353598
177.991455	20.216892
178.990906	41.403419
179.990356	51.417061
180.989807	29.150051
181.989258	23.924458
182.988708	6.849916
183.988159	-23.303801
184.987610	-13.437194
185.987061	-17.510496
186.986511	-22.817572
187.985962	-3.888836
188.985413	4.030872
189.984863	-20.781010
190.984314	5.282550
191.983765	-5.567539
192.983215	2.750253
193.982666	-4.972927
194.982117	-16.473600
195.981567	4.271525
196.981018	16.163031
197.980469	24.436531
198.979919	19.881622
199.979370	-33.182472
200.978821	-40.686344
201.978271	-19.434582
202.977722	-19.611706
203.977173	1.003750
204.976624	15.778174
205.976074	7.763761
206.975525	13.713766
207.974976	-2.016435
208.974426	5.452352
209.973877	12.226994
210.973328	21.369129
211.972778	22.146059
212.972229	5.159940
213.971680	10.690773
214.971130	-13.510672
215.970581	-10.449743
216.970032	5.486667
217.969482	-2.237310
218.968933	13.121641
219.968384	-6.317472
220.967834	-2.956792
221.967285	-1.941428
222.966736	-1.836156
223.966187	-11.684059
224.965637	-1.187305
225.965088	4.039311
226.964539	25.790020
227.963989	37.001228
228.963440	13.234285
229.962891	-18.147142
230.962341	-11.705722
231.961792	0.152184
232.961243	0.407280
233.960693	4.098063
234.960144	3.189453
235.959595	24.191055
236.959045	5.404814
237.958496	-11.190541
238.957947	-8.124078
239.957397	-0.391356
240.956848	-8.075341
241.956299	-0.670978
242.955750	-1.771560
243.955200	-0.192218
244.954651	8.379890
245.954102	10.640934
246.953552	4.502644
247.953003	2.902617
248.952454	-0.558536
249.951904	-6.232945
250.951355	16.939787
251.950806	15.821838
252.950256	34.991821
253.949707	39.305702
254.949158	18.755064
255.948608	21.406780
256.949493	8.955563
257.950470	-8.857330
258.951447	-8.399058
259.952423	-2.112647
260.953400	7.637220
261.954376	13.151484
262.955353	14.075892
263.956329	19.588142
264.957306	18.346289
265.958282	14.838504
266.959259	13.851822
267.960236	12.379992
268.961212	10.025008
269.962189	9.380090
270.963165	6.171007
271.964142	-3.543868
272.965118	-12.803064
273.966095	-17.543457
274.967072	-15.804706
275.968048	-20.962473
276.969025	-16.862671
277.970001	-11.951461
278.970978	-12.565042
279.971954	-13.709594
280.972931	-14.604356
281.973907	-7.358664
282.974884	-12.445461
283.975861	-15.544950
284.976837	-14.148785
285.977814	-16.973063
286.978790	-13.563164
287.979767	-2.450205
288.980743	5.098536
289.981720	6.320348
290.982697	5.686398
291.983673	10.128570
292.984650	13.808113
293.985626	17.732122
294.986603	25.376572
295.987579	22.362705
296.988556	16.072027
297.989532	16.149668
298.990509	17.226358
299.991486	14.284291
300.992462	5.280284
301.993439	0.606832
302.994415	-0.751677
303.995392	-7.560936
304.996368	-2.444585
305.997345	-0.205795
306.998322	0.481451
307.999298	-0.952445
309.000275	6.205413
310.001251	17.595253
311.002228	20.176693
312.003204	18.477053
313.004181	14.496716
314.005157	2.664068
315.006134	4.790770
316.007111	10.066432
317.008087	7.076289
318.009064	-1.450144
319.010040	-1.032959
320.011017	6.361433
321.011993	5.172116
322.012970	-5.037257
323.013947	-4.664311
324.014923	-4.022047
325.015900	1.288124
326.016876	-0.101745
327.017853	-5.391798
328.018829	0.675720
329.019806	-1.530738
330.020782	-3.915420
331.021759	-2.431700
332.022736	-0.904926
333.023712	6.303425
334.024689	3.782009
335.025665	1.001025
336.026642	1.789697
337.027618	8.357465
338.028595	4.419117
339.029572	-1.442239
340.030548	1.751142
341.031525	5.490227
342.032501	3.213328
343.033478	-2.109145
344.034454	-3.533175
345.035431	-5.882272
346.036407	-5.769109
347.037384	-2.905528
348.038361	-0.511976
349.039337	-3.411182
350.040314	-3.651898
351.041290	1.566135
352.042267	7.324895
353.043243	8.007393
354.044220	7.788567
355.045197	3.363770
356.046173	5.051692
357.047150	5.876931
358.048126	3.906012
359.049103	0.932397
360.050079	1.007501
361.051056	-1.496398
362.052032	-4.430346
363.053009	-2.018968
364.053986	-5.875938
365.054962	-6.624572
366.055939	-5.656249
367.056915	-5.109817
368.057892	-2.773244
369.058868	0.278329
370.059845	1.716596
371.060822	4.697353
372.061798	7.399143
373.062775	6.943858
374.063751	3.877505
375.064728	2.133675
376.065704	4.058470
377.066681	5.122899
378.067657	2.704025
379.068634	1.636254
380.069611	1.911678
381.070587	0.318126
382.071564	2.799619
383.072540	1.733009
384.073517	-2.024639
385.074493	0.065551
386.075470	0.411081
387.076447	0.141237
388.077423	0.407410
389.078400	2.873359
390.079376	5.166037
391.080353	3.161326
392.081329	2.541207
393.082306	2.558109
394.083282	0.332167
395.084259	1.644612
396.085236	1.333226
397.086212	-0.204671
398.087189	0.014300
399.088165	-2.061587
400.089142	-4.656545
401.090118	-2.941992
402.091095	0.035988
403.092072	-0.027356
404.093048	0.391315
405.094025	2.510624
406.095001	2.851974
407.095978	0.194093
408.096954	0.718806
409.097931	0.163026
410.098907	-1.091704
411.099884	-0.040557
412.100861	1.637710
413.101837	-1.487822
414.102814	-2.286368
415.103790	-2.750747
416.104767	-2.203827
417.105743	-1.568415
418.106720	-1.749062
419.107697	0.545202
420.108673	1.445162
421.109650	2.380604
422.110626	0.276803
423.111603	0.613300
424.112579	0.150266
425.113556	-3.027315
426.114532	-1.459588
427.115509	1.782232
428.116486	-0.790959
429.117462	-1.755641
430.118439	1.550146
431.119415	0.771261
432.120392	-0.501700
433.121368	0.347741
434.122345	0.284715
435.123322	-0.967828
436.124298	-0.921666
437.125275	-1.826618
438.126251	-2.000609
439.127228	-3.179900
440.128204	-4.197467
441.129181	-4.001403
442.130157	-2.648761
443.131134	-2.052222
444.132111	-2.714144
445.133087	-0.795401
446.134064	0.318937
447.135040	1.215526
448.136017	2.705973
449.136993	1.527723
450.137970	0.676385
451.138947	1.469147
452.139923	0.055823
453.140900	-0.283835
454.141876	-0.166126
455.142853	-1.082918
456.143829	0.024063
457.144806	1.373370
458.145782	-0.124395
459.146759	-1.488086
460.147736	-0.925992
461.148712	-1.316973
462.149689	-1.771115
463.150665	-0.040178
464.151642	-0.449487
465.152618	0.104710
466.153595	1.094536
467.154572	0.123293
468.155548	0.870987
469.156525	0.440752
470.157501	-0.588367
471.158478	-0.690902
472.159454	-2.030436
473.160431	-2.748180
474.161407	-3.486613
475.162384	-2.379527
476.163361	-0.839962
477.164337	-0.138237
478.165314	0.389542
479.166290	1.228421
480.167267	1.771804
481.168243	0.797228
482.169220	1.084762
483.170197	1.591963
484.171173	0.232878
485.172150	-0.225218
486.173126	-1.243987
487.174103	-1.943968
488.175079	-1.474721
489.176056	-2.235378
490.177032	-1.756066
491.178009	-0.154995
492.178986	-0.916917
493.179962	-0.017400
494.180939	0.959147
495.181915	0.678476
496.182892	0.185945
497.183868	0.542756
498.184845	0.472722
499.185822	1.022600
500.186798	1.035576
501.187775	0.534313
502.188751	0.724362
503.189728	-0.260485
504.190704	-0.112174
505.191681	0.037981
506.192657	0.897469
507.193634	1.151704
508.194611	1.259250
509.195587	1.139066
510.196564	1.378420
511.197540	0.934473
512.198486	0.627595
513.199463	-0.037959
514.200439	-0.270894
515.201416	0.738991
516.202393	-0.347523
517.203369	-0.243168
518.204346	-0.422052
519.205322	-0.591736
520.206299	-0.929303
521.207275	-0.877810
522.208252	-0.398968
523.209229	-0.086662
524.210205	0.482953
525.211182	0.163977
526.212158	0.171093
527.213135	-0.324075
528.214111	-0.332753
529.215088	-0.822204
530.216064	-0.831160
531.217041	-0.339156
532.218018	-0.669791
533.218994	-0.740088
534.219971	-0.733656
535.220947	-0.951377
536.221924	-1.325853
537.222900	-0.583290
538.223877	-0.664065
539.224854	-0.370108
540.225830	-0.023686
541.226807	-0.195539
542.227783	0.581906
543.228760	0.303049
544.229736	0.472857
545.230713	0.739291
546.231689	0.509059
547.232666	0.045417
548.233643	0.241039
549.234619	0.266992
550.235596	-0.500655
551.236572	-0.679465
552.237549	-0.763699
553.238525	-0.523954
554.239502	-0.601513
555.240479	-0.549631
556.241455	-0.860585
557.242432	-1.143513
558.243408	-1.084362
559.244385	-1.051541
560.245361	-1.352134
561.246338	-0.701171
562.247314	-1.064727
563.248291	-1.366819
564.249268	-0.573751
565.250244	-0.856288
566.251221	-0.971775
567.252197	-0.576293
568.253174	-0.140619
569.254150	0.280935
570.255127	0.420694
571.256104	0.721692
572.257080	1.137690
573.258057	0.827371
574.259033	0.048226
575.260010	-0.138429
576.260986	-0.830651
577.261963	-0.900646
578.262939	-1.590860
579.263916	-1.310742
580.264893	-1.472935
581.265869	-1.397708
582.266846	-1.471115
583.267822	-1.251641
584.268799	-1.008621
585.269775	-1.218406
586.270752	-0.496024
587.271729	-0.162643
588.272705	0.042295
589.273682	-0.227296
590.274658	0.050837
591.275635	0.144139
592.276611	-0.312873
593.277588	-0.638430
594.278564	-0.807682
595.279541	-0.364787
596.280518	-0.537571
597.281494	-0.914038
598.282471	-0.833985
599.283447	-0.927353
600.284424	-1.266245
601.285400	-1.134702
602.286377	-0.945304
603.287354	-0.692592
604.288330	-0.798749
605.289307	-1.059453
606.290283	-0.555797
607.291260	-0.767624
608.292236	-0.830819
609.293213	-0.632697
610.294189	0.249045
611.295166	0.109283
612.296143	0.517413
613.297119	0.436639
614.298096	0.618304
615.299072	-0.067026
616.300049	-0.280707
617.301025	-0.201091
618.302002	-0.225466
619.302979	-0.602655
620.303955	-0.509437
621.304932	-0.249162
622.305908	-0.295043
623.306885	-0.238814
624.307861	-0.187013
625.308838	-0.122745
626.309814	-0.365412
627.310791	-0.761307
628.311768	-0.695688
629.312744	-0.769270
630.313721	-1.046197
631.314697	-0.990898
632.315674	-0.942390
633.316650	-0.704968
634.317627	-0.900881
635.318604	-0.735998
636.319580	-0.437425
637.320557	-0.410336
638.321533	-0.464441
639.322510	-0.308226
640.323486	-0.166022
641.324463	-0.127084
642.325439	-0.215716
643.326416	-0.065009
644.327393	0.112305
645.328369	-0.000653
646.329346	0.161221
647.330322	0.158744
648.331299	0.333091
649.332275	0.108225
650.333252	0.194695
651.334229	0.115972
652.335205	0.163700
653.336182	-0.109365
654.337158	-0.045210
655.338135	-0.107366
656.339111	-0.127438
657.340088	-0.128681
658.341064	-0.184589
659.342041	0.009858
660.343018	-0.235085
661.343994	-0.084890
662.344971	-0.457610
663.345947	-0.346484
664.346924	-0.618184
665.347900	-0.648818
666.348877	-0.705233
667.349854	-0.718973
668.350830	-0.625491
669.351807	-0.743628
670.352783	-0.606366
671.353760	-0.605267
672.354736	-0.535719
673.355713	-0.632649
674.356689	-0.529674
675.357666	-0.439040
676.358643	-0.453600
677.359619	-0.390157
678.360596	-0.269787
679.361572	-0.083944
680.362549	-0.078249
681.363525	0.014579
682.364502	0.118015
683.365479	0.184658
684.366455	0.111233
685.367432	0.079451
686.368408	0.170124
687.369385	0.048881
688.370361	0.010356
689.371338	-0.099756
690.372314	-0.008669
691.373291	-0.224349
692.374268	-0.184236
693.375244	-0.358369
694.376221	-0.250000
695.377197	-0.386001
696.378174	-0.527967
697.379150	-0.447105
698.380127	-0.573611
699.381104	-0.585012
700.382080	-0.707679
701.383057	-0.579881
702.384033	-0.615973
703.385010	-0.545893
704.385986	-0.595107
705.386963	-0.293854
706.387939	-0.429578
707.388916	-0.231906
708.389893	-0.320434
709.390869	-0.104829
710.391846	-0.161511
711.392822	-0.183363
712.393799	-0.108208
713.394775	-0.075613
714.395752	-0.095218
715.396729	-0.202984
716.397705	-0.146036
717.398682	-0.227250
718.399658	-0.297590
719.400635	-0.414384
720.401611	-0.209176
721.402588	-0.406422
722.403564	-0.184206
723.404541	-0.306565
724.405518	-0.046598
725.406494	-0.194102
726.407471	-0.145379
727.408447	-0.219609
728.409424	-0.289643
729.410400	-0.344133
730.411377	-0.514499
731.412354	-0.439020
732.413330	-0.475850
733.414307	-0.340813
734.415283	-0.343310
735.416260	-0.077697
736.417236	-0.059260
737.418213	0.091082
738.419189	0.021679
739.420166	0.116387
740.421143	0.000472
741.422119	-0.002905
742.423096	-0.171190
743.424072	-0.046969
744.425049	-0.092826
745.426025	-0.099707
746.427002	0.022258
747.427979	0.060701
748.428955	0.148489
749.429932	0.052550
750.430908	0.198127
751.431885	0.088487
752.432861	0.121934
753.433838	-0.048212
754.434814	0.001060
755.435791	-0.085004
756.436768	-0.155427
757.437744	-0.179836
758.438721	-0.167455
759.439697	-0.159774
760.440674	-0.235473
761.441650	-0.196633
762.442627	-0.181880
763.443604	-0.210950
764.444580	-0.258887
765.445557	-0.246308
766.446533	-0.226355
767.447510	-0.265670
768.448486	-0.245848
769.449463	-0.171625
770.450439	-0.145634
771.451416	-0.081718
772.452393	-0.078521
773.453369	0.019032
774.454346	0.031577
775.455322	0.045628
776.456299	0.061055
777.457275	0.125337
778.458252	0.135126
779.459229	0.141896
780.460205	0.187704
781.461182	0.198406
782.462158	0.236144
783.463135	0.157481
784.464111	0.162932
785.465088	0.129675
786.466064	0.069989
787.467041	-0.023772
788.468018	-0.041630
789.468994	-0.042380
790.469971	-0.120618
791.470947	-0.091321
792.471924	-0.101210
793.472900	-0.011953
794.473877	-0.108741
795.474854	-0.069341
796.475830	-0.096377
797.476807	-0.127481
798.477783	-0.233139
799.478760	-0.297648
800.479736	-0.288972
801.480713	-0.425727
802.481689	-0.451801
803.482666	-0.540275
804.483643	-0.478049
805.484619	-0.595030
806.485596	-0.548919
807.486572	-0.562470
808.487549	-0.451011
809.488525	-0.511686
810.489502	-0.452473
811.490479	-0.418037
812.491455	-0.405475
813.492432	-0.437559
814.493408	-0.483181
815.494385	-0.359455
816.495361	-0.453282
817.496338	-0.338951
818.497314	-0.386440
819.498291	-0.147211
820.499268	-0.258391
821.500244	-0.118398
822.501221	-0.134634
823.502197	-0.070762
824.503174	-0.099632
825.504150	-0.158029
826.505127	-0.035319
827.506104	-0.126864
828.507080	0.006706
829.508057	-0.121078
830.509033	0.103694
831.510010	-0.032548
832.510986	0.053223
833.511963	-0.040809
834.512939	0.014725
835.513916	-0.055439
836.514893	-0.150691
837.515869	-0.098617
838.516846	-0.186053
839.517822	-0.116342
840.518799	-0.236636
841.519775	-0.080197
842.520752	-0.126650
843.521729	-0.018555
844.522705	-0.059220
845.523682	0.049460
846.524658	0.051762
847.525635	0.027157
848.526611	0.003768
849.527588	-0.017550
850.528564	-0.017530
851.529541	-0.118309
852.530518	-0.073870
853.531494	-0.083043
854.532471	-0.015902
855.533447	-0.093187
856.534424	0.003130
857.535400	-0.049681
858.536377	-0.019230
859.537354	-0.168646
860.538330	-0.144326
861.539307	-0.218421
862.540283	-0.291216
863.541260	-0.327078
864.542236	-0.372581
865.543213	-0.287967
866.544189	-0.419645
867.545166	-0.314878
868.546143	-0.385364
869.547119	-0.264320
870.548096	-0.410005
871.549072	-0.313702
872.550049	-0.350090
873.551025	-0.324960
874.552002	-0.371418
875.552979	-0.361995
876.553955	-0.284951
877.554932	-0.344367
878.555908	-0.268793
879.556885	-0.293375
880.557861	-0.148955
881.558838	-0.218934
882.559814	-0.128555
883.560791	-0.127819
884.561768	-0.043530
885.562744	-0.101632
886.563721	-0.065409
887.564697	-0.064472
888.565674	-0.047599
889.566650	-0.110209
890.567627	-0.101261
891.568604	-0.100955
892.569580	-0.124839
893.570557	-0.162514
894.571533	-0.176768
895.572510	-0.152326
896.573486	-0.214786
897.574463	-0.210254
898.575439	-0.259496
899.576416	-0.196139
900.577393	-0.293836
901.578369	-0.245175
902.579346	-0.312613
903.580322	-0.230357
904.581299	-0.326761
905.582275	-0.266657
906.583252	-0.291543
907.584229	-0.232058
908.585205	-0.259976
909.586182	-0.226394
910.587158	-0.175806
911.588135	-0.177669
912.589111	-0.131669
913.590088	-0.169830
914.591064	-0.044817
915.592041	-0.129681
916.593018	-0.016592
917.593994	-0.120822
918.594971	0.033219
919.595947	-0.099546
920.596924	-0.026507
921.597900	-0.120776
922.598877	-0.078520
923.599854	-0.155360
924.600830	-0.201625
925.601807	-0.172754
926.602783	-0.243550
927.603760	-0.185446
928.604736	-0.299075
929.605713	-0.165306
930.606689	-0.288609
931.607666	-0.179076
932.608643	-0.315331
933.609619	-0.167970
934.610596	-0.276233
935.611572	-0.181266
936.612549	-0.234893
937.613525	-0.131629
938.614502	-0.132788
939.615479	-0.115676
940.616455	-0.047381
941.617432	-0.058586
942.618408	0.036125
943.619385	-0.063405
944.620361	0.078109
945.621338	-0.033761
946.622314	0.084301
947.623291	-0.078403
948.624268	0.038481
949.625244	-0.090385
950.626221	-0.060220
951.627197	-0.166192
952.628174	-0.153905
953.629150	-0.189472
954.630127	-0.261018
955.631104	-0.247046
