# id:                 2
# size:               9000
# coupling constant:  1.000000E+00
# inhomogenity Delta: 1.500000E+00
0.010000	559.767761
1.009999	600.594849
2.009999	723.544250
3.009998	944.446289
4.009997	1288.062622
5.010020	1787.390137
6.010043	2468.366699
7.010066	3313.877441
8.010088	4184.342773
9.010111	4774.472656
10.010134	4779.247070
11.010157	4208.791504
12.010180	3381.965088
13.010202	2582.801514
14.010225	1950.729492
15.010248	1511.970215
16.010271	1247.246704
17.010294	1130.589722
18.010317	1127.609009
19.010340	1185.548462
20.010363	1231.779663
21.010386	1207.529785
22.010408	1088.952393
23.010431	911.869385
24.010454	748.010681
25.010477	632.730835
26.010500	555.456970
27.010523	497.210510
28.010546	447.350067
29.010569	399.769623
30.010592	353.880829
31.010614	306.710388
32.010635	260.294434
33.010468	212.233658
34.010300	168.996628
35.010132	141.984589
36.009964	150.165619
37.009796	175.366730
38.009628	182.520859
39.009460	158.939865
40.009293	132.618774
41.009125	108.467957
42.008957	91.242683
43.008789	97.922966
44.008621	102.956520
45.008453	105.125381
46.008286	106.813217
47.008118	108.625412
48.007950	111.725525
49.007782	116.952744
50.007614	102.702736
51.007446	78.296486
52.007278	71.853073
53.007111	82.499153
54.006943	92.620995
55.006775	90.870270
56.006607	88.872627
57.006439	86.773552
58.006271	68.180336
59.006104	38.084599
60.005936	26.299940
61.005768	24.545990
62.005600	42.707809
63.005432	73.290573
64.005264	101.056007
65.005478	112.810112
66.005692	121.179726
67.005905	116.279564
68.006119	100.060318
69.006332	73.416420
70.006546	62.837948
71.006760	59.170971
72.006973	65.014992
73.007187	74.382484
74.007401	76.020630
75.007614	72.478371
76.007828	83.953964
77.008041	79.539436
78.008255	54.370457
79.008469	23.217283
80.008682	15.450260
81.008896	35.792656
82.009109	57.013626
83.009323	70.585434
84.009537	64.449120
85.009750	53.380173
86.009964	50.618637
87.010178	57.991928
88.010391	59.285923
89.010605	72.211296
90.010818	84.826294
91.011032	61.613903
92.011246	17.428482
93.011459	-9.394966
94.011673	-0.793169
95.011887	8.746286
96.012100	18.582127
97.012314	4.657815
98.012527	-6.938066
99.012741	12.271973
100.012955	53.882290
101.013168	46.832832
102.013382	34.573189
103.013596	47.895287
104.013809	47.726234
105.014023	56.033348
106.014236	55.516499
107.014450	39.411266
108.014664	38.808167
109.014877	28.128710
110.015091	19.818987
111.015305	10.840249
112.015518	17.023180
113.015732	43.506439
114.015945	63.336250
115.016159	94.689590
116.016373	88.358040
117.016586	55.772022
118.016800	-0.816352
119.017014	-43.050148
120.017227	-48.266666
121.017441	-45.956173
122.017654	-44.448021
123.017868	-54.396744
124.018082	-54.173729
125.018295	-44.224277
126.018509	-10.973989
127.018723	-21.167116
128.018921	-35.517918
129.018372	-40.294643
130.017822	-52.029198
131.017273	-58.300789
132.016724	-44.341888
133.016174	-11.591344
134.015625	26.457777
135.015076	17.834761
136.014526	2.274009
137.013977	-25.291914
138.013428	-25.963844
139.012878	-14.367893
140.012329	-6.253618
141.011780	-10.299737
142.011230	-27.967733
143.010681	-56.897724
144.010132	-84.988220
145.009583	-45.630680
146.009033	-22.562963
147.008484	1.462468
148.007935	2.691424
149.007385	20.302454
150.006836	21.728085
151.006287	-1.545645
152.005737	3.324789
153.005188	-10.432217
154.004639	-3.978081
155.004089	13.099675
156.003540	-6.473841
157.002991	6.489614
158.002441	1.796680
159.001892	-3.596038
160.001343	24.143873
161.000793	22.317932
162.000244	-6.168211
162.999695	-5.730556
163.999146	-16.776852
164.998596	-0.233906
165.998047	5.865323
166.997498	9.270784
167.996948	-2.949179
168.996399	-13.952602
169.995850	13.722930
170.995300	16.912153
171.994751	16.084866
172.994202	20.507935
173.993652	24.838413
174.993103	3.423649
175.992554	23.937151
176.992004	59.008018
177.991455	37.272594
178.990906	22.496382
179.990356	27.950867
180.989807	23.841438
181.989258	10.945193
182.988708	41.571590
183.988159	25.704523
184.987610	2.314064
185.987061	5.244044
186.986511	-16.218370
187.985962	-33.714825
188.985413	4.032006
189.984863	9.716013
190.984314	11.794851
191.983765	9.465078
192.983215	-5.802824
193.982666	-18.820574
194.982117	-22.521746
195.981567	-28.773972
196.981018	-46.098316
197.980469	-32.058746
198.979919	-25.712627
199.979370	-44.138268
200.978821	-43.691570
201.978271	-24.899757
202.977722	-24.148685
203.977173	5.533412
204.976624	12.530353
205.976074	-1.820412
206.975525	8.271910
207.974976	19.755375
208.974426	27.660353
209.973877	25.244770
210.973328	23.039976
211.972778	11.427694
212.972229	-13.703196
213.971680	-19.447643
214.971130	-33.966171
215.970581	-5.627413
216.970032	20.976419
217.969482	37.016884
218.968933	9.069965
219.968384	8.984557
220.967834	-0.142501
221.967285	-10.397600
222.966736	15.393426
223.966187	-6.037706
224.965637	-20.908686
225.965088	-22.940651
226.964539	-16.754803
227.963989	10.835938
228.963440	30.266298
229.962891	17.626802
230.962341	-10.868275
231.961792	-17.883244
232.961243	5.090953
233.960693	29.061073
234.960144	38.597744
235.959595	14.419374
236.959045	30.863989
237.958496	17.113018
238.957947	14.362377
239.957397	20.186008
240.956848	6.934995
241.956299	15.470688
242.955750	7.650468
243.955200	7.824120
244.954651	19.387806
245.954102	9.443173
246.953552	21.106522
247.953003	17.755688
248.952454	10.427748
249.951904	17.938379
250.951355	15.359162
251.950806	14.218707
252.950256	24.999027
253.949707	20.473167
254.949158	9.713263
255.948608	3.092373
256.949493	-7.136806
257.950470	-27.001633
258.951447	-35.998569
259.952423	-25.408264
260.953400	-15.712139
261.954376	-1.650676
262.955353	-12.772934
263.956329	-3.770639
264.957306	-16.674801
265.958282	-5.359495
266.959259	11.485644
267.960236	8.190871
268.961212	-5.356277
269.962189	-4.546796
270.963165	-8.367810
271.964142	-11.337423
272.965118	-8.426125
273.966095	0.666285
274.967072	11.783826
275.968048	6.812701
276.969025	2.633824
277.970001	-1.531592
278.970978	-4.369104
279.971954	-6.457162
280.972931	-9.871505
281.973907	-9.704024
282.974884	-8.582862
283.975861	-9.424945
284.976837	-6.894285
285.977814	1.107128
286.978790	1.835778
287.979767	8.592396
288.980743	5.636952
289.981720	3.120320
290.982697	-4.957424
291.983673	-5.643126
292.984650	1.161780
293.985626	1.278715
294.986603	-3.163622
295.987579	-8.968256
296.988556	-4.862077
297.989532	-11.057699
298.990509	-17.286003
299.991486	-16.596800
300.992462	-16.365276
301.993439	-14.527501
302.994415	-12.909095
303.995392	-1.854170
304.996368	0.041887
305.997345	-3.918028
306.998322	-2.487932
307.999298	-4.719369
309.000275	-5.036203
310.001251	-5.705009
311.002228	-10.584991
312.003204	-6.522827
313.004181	-1.345343
314.005157	3.378024
315.006134	5.534093
316.007111	5.071147
317.008087	9.463701
318.009064	11.268667
319.010040	11.520519
320.011017	8.599651
321.011993	6.095991
322.012970	4.838030
323.013947	0.625816
324.014923	-3.538781
325.015900	-4.395106
326.016876	-2.905180
327.017853	-6.369834
328.018829	-13.632627
329.019806	-11.203822
330.020782	-9.242248
331.021759	-5.202171
332.022736	-2.969959
333.023712	-4.413285
334.024689	-2.316007
335.025665	2.779860
336.026642	0.241157
337.027618	2.397147
338.028595	6.320057
339.029572	-0.568600
340.030548	0.297719
341.031525	5.262783
342.032501	12.649557
343.033478	6.335635
344.034454	7.243442
345.035431	7.769221
346.036407	3.886286
347.037384	4.540543
348.038361	3.446055
349.039337	-0.426812
350.040314	-2.927155
351.041290	-6.582275
352.042267	-9.169485
353.043243	-6.719858
354.044220	-2.380088
355.045197	-4.764961
356.046173	-2.638540
357.047150	0.969274
358.048126	-1.487499
359.049103	-4.388443
360.050079	2.521055
361.051056	5.007043
362.052032	0.949978
363.053009	0.785590
364.053986	0.057336
365.054962	-1.347586
366.055939	0.554889
367.056915	-0.278336
368.057892	-4.214744
369.058868	-3.711457
370.059845	-4.769059
371.060822	-8.290231
372.061798	-5.231342
373.062775	-3.594578
374.063751	-4.076393
375.064728	-6.765098
376.065704	-6.250919
377.066681	-3.987751
378.067657	-2.713188
379.068634	-5.646602
380.069611	-2.707469
381.070587	-3.380898
382.071564	-3.225519
383.072540	-3.641657
384.073517	-3.417003
385.074493	-2.667340
386.075470	-2.810795
387.076447	-2.280458
388.077423	-1.223386
389.078400	-4.463233
390.079376	-2.622890
391.080353	-3.455637
392.081329	-7.269700
393.082306	-8.815474
394.083282	-6.570662
395.084259	-2.936265
396.085236	-2.640373
397.086212	-4.264624
398.087189	-6.153418
399.088165	-3.841483
400.089142	-2.278556
401.090118	-2.966639
402.091095	-0.718756
403.092072	-0.454094
404.093048	0.825307
405.094025	1.563427
406.095001	-1.212758
407.095978	-0.598050
408.096954	1.831522
409.097931	1.149873
410.098907	-0.076028
411.099884	2.128175
412.100861	3.668426
413.101837	3.395557
414.102814	2.702734
415.103790	2.286655
416.104767	-0.726374
417.105743	-1.740682
418.106720	-1.123541
419.107697	-0.863886
420.108673	-1.639633
421.109650	-0.571733
422.110626	0.212851
423.111603	0.245311
424.112579	0.440298
425.113556	-0.334801
426.114532	-1.508551
427.115509	-2.567081
428.116486	-2.251247
429.117462	-1.909419
430.118439	-3.102379
431.119415	-2.539332
432.120392	-2.977137
433.121368	-1.813491
434.122345	-1.720408
435.123322	-1.143644
436.124298	-1.175094
437.125275	-1.583632
438.126251	-0.361164
439.127228	-0.882730
440.128204	0.315795
441.129181	1.805816
442.130157	0.404914
443.131134	-0.342775
444.132111	0.381948
445.133087	0.788882
446.134064	-0.751947
447.135040	-1.043634
448.136017	0.257911
449.136993	-0.971376
450.137970	-1.884563
451.138947	-1.467883
452.139923	-1.219450
453.140900	-1.011334
454.141876	-2.378626
455.142853	-3.091837
456.143829	-2.215071
457.144806	-0.266602
458.145782	-1.020798
459.146759	-0.809181
460.147736	1.197860
461.148712	0.959278
462.149689	-0.672037
463.150665	0.456234
464.151642	0.326954
465.152618	-0.330328
466.153595	0.080251
467.154572	0.914121
468.155548	0.735675
469.156525	0.032689
470.157501	0.673232
471.158478	1.326367
472.159454	1.577010
473.160431	2.315615
474.161407	2.563835
475.162384	2.206249
476.163361	1.491003
477.164337	0.662241
478.165314	-0.540663
479.166290	-0.665586
480.167267	-0.589633
481.168243	-0.410744
482.169220	-0.206006
483.170197	0.161896
484.171173	0.222620
485.172150	-0.260997
486.173126	-0.009908
487.174103	0.094786
488.175079	-0.714257
489.176056	-0.935579
490.177032	-1.155040
491.178009	-1.194187
492.178986	-1.825094
493.179962	-1.790535
494.180939	-1.252244
495.181915	-0.764547
496.182892	-0.220678
497.183868	0.064544
498.184845	0.743932
499.185822	0.604288
500.186798	1.374193
501.187775	1.548782
502.188751	2.129817
503.189728	2.191914
504.190704	2.197379
505.191681	2.290573
506.192657	1.949273
507.193634	2.509948
508.194611	2.075227
509.195587	2.721066
510.196564	2.370199
511.197540	2.963225
512.198486	2.941061
513.199463	2.482125
514.200439	2.122785
515.201416	1.660927
516.202393	1.042669
517.203369	0.181969
518.204346	0.204645
519.205322	-0.176344
520.206299	-0.907646
521.207275	-0.882033
522.208252	-1.015078
523.209229	-1.291400
524.210205	-0.651335
525.211182	-0.792850
526.212158	-0.917794
527.213135	-0.584127
528.214111	-0.783072
529.215088	-1.137569
530.216064	-0.630280
531.217041	-0.516498
532.218018	-0.011694
533.218994	0.422526
534.219971	0.417405
535.220947	0.674210
536.221924	0.040137
537.222900	-0.190496
538.223877	-0.656949
539.224854	-0.808948
540.225830	-1.093635
541.226807	-1.244855
542.227783	-1.291612
543.228760	-1.535552
544.229736	-1.284484
545.230713	-1.624511
546.231689	-1.089157
547.232666	-0.663184
548.233643	-0.466036
549.234619	-0.374358
550.235596	-0.344205
551.236572	-0.016992
552.237549	-0.078776
553.238525	0.237959
554.239502	0.076813
555.240479	-0.140882
556.241455	-0.247233
557.242432	-0.468216
558.243408	-0.672032
559.244385	-0.623781
560.245361	-0.317008
561.246338	-0.432055
562.247314	-0.232221
563.248291	-0.205887
564.249268	0.021197
565.250244	-0.024635
566.251221	-0.377417
567.252197	-0.282943
568.253174	-0.722912
569.254150	-0.951945
570.255127	-0.859623
571.256104	-0.682404
572.257080	-0.808072
573.258057	-0.476262
574.259033	-0.219491
575.260010	-0.238336
576.260986	-0.448975
577.261963	-0.693548
578.262939	-0.461816
579.263916	-0.947678
580.264893	-0.765007
581.265869	-0.687675
582.266846	-0.502480
583.267822	-0.365491
584.268799	-0.390838
585.269775	-0.123311
586.270752	-0.182990
587.271729	-0.189728
588.272705	-0.441714
589.273682	-0.082038
590.274658	-0.311672
591.275635	-0.567623
592.276611	-0.505777
593.277588	-0.465149
594.278564	-0.555221
595.279541	-0.569288
596.280518	-0.282750
597.281494	-0.215352
598.282471	-0.059863
599.283447	-0.288850
600.284424	-0.057636
601.285400	0.201494
602.286377	0.123752
603.287354	0.334017
604.288330	0.563001
605.289307	0.647567
606.290283	0.489287
607.291260	0.439392
608.292236	0.502759
609.293213	0.503779
610.294189	0.138441
611.295166	-0.002963
612.296143	0.024666
613.297119	-0.127320
614.298096	-0.383577
615.299072	-0.438457
616.300049	-0.191686
617.301025	-0.276221
618.302002	-0.294619
619.302979	-0.010564
620.303955	0.195744
621.304932	0.093403
622.305908	0.250595
623.306885	0.268561
624.307861	0.564189
625.308838	0.304538
626.309814	0.370935
627.310791	0.259016
628.311768	0.315594
629.312744	0.054479
630.313721	-0.222308
631.314697	0.108605
632.315674	-0.332359
633.316650	-0.172565
634.317627	-0.521679
635.318604	-0.162932
636.319580	-0.418102
637.320557	-0.441119
638.321533	-0.244720
639.322510	-0.254685
640.323486	-0.121170
641.324463	-0.365802
642.325439	-0.175794
643.326416	-0.186911
644.327393	-0.290771
645.328369	-0.515070
646.329346	-0.429271
647.330322	-0.473257
648.331299	-0.595478
649.332275	-0.612021
650.333252	-0.498060
651.334229	-0.400701
652.335205	-0.371212
653.336182	-0.379931
654.337158	-0.083304
655.338135	-0.083942
656.339111	-0.100359
657.340088	-0.025544
658.341064	0.092362
659.342041	0.157387
660.343018	0.031063
661.343994	0.230504
662.344971	0.230548
663.345947	0.222837
664.346924	-0.012574
665.347900	-0.090400
666.348877	-0.121604
667.349854	-0.434431
668.350830	-0.571088
669.351807	-0.564076
670.352783	-0.540441
671.353760	-0.571772
672.354736	-0.641235
673.355713	-0.460336
674.356689	-0.545421
675.357666	-0.649464
676.358643	-0.672585
677.359619	-0.522671
678.360596	-0.499636
679.361572	-0.524192
680.362549	-0.383227
681.363525	-0.246966
682.364502	-0.190549
683.365479	-0.260452
684.366455	-0.015678
685.367432	0.055608
686.368408	0.102519
687.369385	0.082694
688.370361	0.194298
689.371338	0.243405
690.372314	0.080855
691.373291	0.154983
692.374268	0.123063
693.375244	0.155262
694.376221	0.085509
695.377197	0.130808
696.378174	0.190023
697.379150	0.136476
698.380127	0.107826
699.381104	0.014312
700.382080	0.026424
701.383057	-0.109353
702.384033	-0.153177
703.385010	-0.186002
704.385986	-0.208090
705.386963	-0.209329
706.387939	-0.201613
707.388916	-0.225702
708.389893	-0.091538
709.390869	-0.157487
710.391846	-0.047336
711.392822	-0.098610
712.393799	-0.027578
713.394775	0.011102
714.395752	0.010738
715.396729	0.156680
716.397705	0.141393
717.398682	0.367204
718.399658	0.196213
719.400635	0.420419
720.401611	0.220622
721.402588	0.335820
722.403564	0.028437
723.404541	0.065131
724.405518	-0.107065
725.406494	-0.255047
726.407471	-0.329387
727.408447	-0.543758
728.409424	-0.398691
729.410400	-0.718457
730.411377	-0.545173
731.412354	-0.763627
732.413330	-0.511157
733.414307	-0.732134
734.415283	-0.516004
735.416260	-0.556089
736.417236	-0.371010
737.418213	-0.449089
738.419189	-0.355980
739.420166	-0.227184
740.421143	-0.280842
741.422119	-0.168199
742.423096	-0.282042
743.424072	0.009733
744.425049	-0.282638
745.426025	-0.058995
746.427002	-0.301655
747.427979	-0.096068
748.428955	-0.353713
749.429932	-0.327447
750.430908	-0.343178
751.431885	-0.379598
752.432861	-0.352672
753.433838	-0.425971
754.434814	-0.246413
755.435791	-0.337317
756.436768	-0.221685
757.437744	-0.307848
758.438721	-0.112942
759.439697	-0.222880
760.440674	-0.095363
761.441650	-0.176863
762.442627	-0.014087
763.443604	-0.082806
764.444580	-0.031028
765.445557	0.002060
766.446533	0.046267
767.447510	0.095351
768.448486	0.025226
769.449463	0.131323
770.450439	0.067224
771.451416	0.099606
772.452393	-0.055723
773.453369	0.047001
774.454346	-0.115920
775.455322	-0.030010
776.456299	-0.200008
777.457275	-0.031869
778.458252	-0.118254
779.459229	-0.067732
780.460205	-0.050909
781.461182	-0.043613
782.462158	0.058921
783.463135	-0.121651
784.464111	0.036410
785.465088	-0.147197
786.466064	-0.042554
787.467041	-0.285123
788.468018	-0.198686
789.468994	-0.341444
790.469971	-0.325349
791.470947	-0.419567
792.471924	-0.383304
793.472900	-0.362375
794.473877	-0.386471
795.474854	-0.379436
796.475830	-0.373769
797.476807	-0.323112
798.477783	-0.380299
799.478760	-0.295141
800.479736	-0.288862
801.480713	-0.137088
802.481689	-0.151535
803.482666	0.041579
804.483643	0.045256
805.484619	0.258842
806.485596	0.181573
807.486572	0.350642
808.487549	0.269193
809.488525	0.352317
810.489502	0.206307
811.490479	0.195313
812.491455	0.122432
813.492432	0.026357
814.493408	-0.025996
815.494385	-0.150874
816.495361	-0.126729
817.496338	-0.289071
818.497314	-0.241510
819.498291	-0.399300
820.499268	-0.270314
821.500244	-0.415013
822.501221	-0.273071
823.502197	-0.363955
824.503174	-0.181214
825.504150	-0.259895
826.505127	-0.115840
827.506104	-0.147817
828.507080	-0.035217
829.508057	-0.047084
830.509033	-0.053079
831.510010	0.006834
832.510986	-0.063088
833.511963	0.003354
834.512939	-0.158889
835.513916	-0.039305
836.514893	-0.211249
837.515869	-0.141204
838.516846	-0.338906
839.517822	-0.242678
840.518799	-0.396193
841.519775	-0.370419
842.520752	-0.456690
843.521729	-0.402101
844.522705	-0.407022
845.523682	-0.409504
846.524658	-0.345812
847.525635	-0.300390
848.526611	-0.224055
849.527588	-0.227004
850.528564	-0.143062
851.529541	-0.099416
852.530518	-0.059431
853.531494	-0.087496
854.532471	-0.004585
855.533447	-0.015040
856.534424	0.042582
857.535400	-0.027451
858.536377	0.086440
859.537354	0.035055
860.538330	0.066302
861.539307	-0.027019
862.540283	0.026480
863.541260	-0.047351
864.542236	-0.104108
865.543213	-0.147585
866.544189	-0.148153
867.545166	-0.160914
868.546143	-0.233543
869.547119	-0.199749
870.548096	-0.213946
871.549072	-0.217972
872.550049	-0.306645
873.551025	-0.286258
874.552002	-0.326581
875.552979	-0.368063
876.553955	-0.425388
877.554932	-0.400213
878.555908	-0.385708
879.556885	-0.398441
880.557861	-0.377652
881.558838	-0.317479
882.559814	-0.291770
883.560791	-0.285001
884.561768	-0.309472
885.562744	-0.226293
886.563721	-0.300469
887.564697	-0.255798
888.565674	-0.340600
889.566650	-0.214658
890.567627	-0.310853
891.568604	-0.247003
892.569580	-0.278829
893.570557	-0.217226
894.571533	-0.248697
895.572510	-0.290371
896.573486	-0.234708
897.574463	-0.299642
898.575439	-0.226116
899.576416	-0.355515
900.577393	-0.173326
901.578369	-0.304531
902.579346	-0.133916
903.580322	-0.289252
904.581299	-0.068214
905.582275	-0.205227
906.583252	-0.083884
907.584229	-0.172795
908.585205	-0.089302
909.586182	-0.109276
910.587158	-0.167633
911.588135	-0.076924
912.589111	-0.177210
913.590088	-0.026392
914.591064	-0.223319
915.592041	-0.005307
916.593018	-0.193627
917.593994	-0.016439
918.594971	-0.217079
919.595947	-0.051577
920.596924	-0.182228
921.597900	-0.118001
922.598877	-0.195593
923.599854	-0.166701
924.600830	-0.170460
925.601807	-0.232841
926.602783	-0.186836
927.603760	-0.249069
928.604736	-0.158808
929.605713	-0.257449
930.606689	-0.128778
931.607666	-0.199019
932.608643	-0.061143
933.609619	-0.152644
934.610596	-0.013181
935.611572	-0.083285
936.612549	0.028601
937.613525	-0.050493
938.614502	0.044303
939.615479	0.008718
940.616455	0.061010
941.617432	0.042785
942.618408	0.059629
943.619385	0.093713
944.620361	0.047386
945.621338	0.084522
946.622314	-0.000003
947.623291	0.063446
948.624268	-0.063673
949.625244	-0.020564
950.626221	-0.140334
951.627197	-0.083250
952.628174	-0.209895
953.629150	-0.173555
954.630127	-0.252031
955.631104	-0.211725
