# id:                 17
# size:               9000
# coupling constant:  1.000000E+00
# inhomogenity Delta: 1.500000E+00
0.010000	563.333984
1.009999	604.416931
2.009999	728.090149
3.009998	950.293884
4.009997	1295.856445
5.010020	1797.794556
6.010043	2481.620850
7.010066	3328.572266
8.010088	4195.562012
9.010111	4774.899414
10.010134	4765.584961
11.010157	4187.503906
12.010180	3360.586182
13.010202	2565.389648
14.010225	1938.755493
15.010248	1504.805420
16.010271	1243.715210
17.010294	1128.044434
18.010317	1122.790649
19.010340	1171.060547
20.010363	1195.700562
21.010386	1132.591064
22.010408	974.166687
23.010431	783.580994
24.010454	622.484497
25.010477	501.291443
26.010500	419.182831
27.010523	364.044373
28.010546	319.566925
29.010569	272.471405
30.010592	220.514053
31.010614	174.611053
32.010635	141.159363
33.010468	111.512566
34.010300	104.043533
35.010132	134.645294
36.009964	187.137131
37.009796	230.512939
38.009628	235.857880
39.009460	204.805679
40.009293	165.567154
41.009125	129.102020
42.008957	102.284241
43.008789	95.120392
44.008621	101.336960
45.008453	119.464272
46.008286	121.836128
47.008118	108.741249
48.007950	96.102165
49.007782	81.567238
50.007614	76.666199
51.007446	90.417694
52.007278	100.788445
53.007111	106.966194
54.006943	99.894638
55.006775	101.507477
56.006607	96.189163
57.006439	98.979927
58.006271	95.565849
59.006104	76.944672
60.005936	47.551605
61.005768	41.618023
62.005600	54.649353
63.005432	71.303490
64.005264	81.020744
65.005478	70.701653
66.005692	40.473148
67.005905	19.862150
68.006119	8.213651
69.006332	16.559698
70.006546	43.154430
71.006760	53.931927
72.006973	45.771286
73.007187	39.189720
74.007401	34.148125
75.007614	17.705990
76.007828	1.323598
77.008041	-23.776520
78.008255	-27.381149
79.008469	-24.079500
80.008682	-31.734787
81.008896	-51.320030
82.009109	-45.657211
83.009323	-16.946331
84.009537	-1.061931
85.009750	16.527802
86.009964	9.309620
87.010178	-0.242079
88.010391	-20.953213
89.010605	-12.985812
90.010818	4.507874
91.011032	5.748414
92.011246	-3.802256
93.011459	-10.968941
94.011673	-11.125603
95.011887	-4.110291
96.012100	12.054406
97.012314	40.615475
98.012527	69.219826
99.012741	91.124123
100.012955	102.696899
101.013168	102.712204
102.013382	107.468689
103.013596	80.665314
104.013809	37.382050
105.014023	-3.113373
106.014236	-40.360260
107.014450	-75.010109
108.014664	-119.151146
109.014877	-143.490738
110.015091	-144.427216
111.015305	-147.994934
112.015518	-142.844986
113.015732	-85.431396
114.015945	-60.175613
115.016159	-60.641914
116.016373	-57.473930
117.016586	-46.479362
118.016800	-14.299434
119.017014	8.443782
120.017227	21.613018
121.017441	29.242683
122.017654	30.315151
123.017868	18.796333
124.018082	-15.063553
125.018295	-34.453056
126.018509	-40.739147
127.018723	-18.758583
128.018921	1.867961
129.018372	-10.683764
130.017822	-9.785659
131.017273	-26.992781
132.016724	-37.498543
133.016174	-19.446341
134.015625	20.164625
135.015076	54.373295
136.014526	62.285004
137.013977	53.615162
138.013428	44.097038
139.012878	44.422264
140.012329	36.772449
141.011780	7.542101
142.011230	3.461150
143.010681	-21.573242
144.010132	-19.846148
145.009583	9.609962
146.009033	2.632106
147.008484	14.974705
148.007935	14.942657
149.007385	7.069955
150.006836	6.215084
151.006287	9.233541
152.005737	13.194071
153.005188	3.830571
154.004639	-11.649301
155.004089	-26.460720
156.003540	-25.197226
157.002991	-32.001232
158.002441	-41.303093
159.001892	-18.876711
160.001343	-31.783234
161.000793	-29.083078
162.000244	-52.579273
162.999695	-64.516479
163.999146	-82.576927
164.998596	-36.076763
165.998047	-4.218263
166.997498	-24.883236
167.996948	-17.121035
168.996399	-4.310513
169.995850	-8.142869
170.995300	31.554472
171.994751	34.018829
172.994202	35.598431
173.993652	24.038687
174.993103	23.665060
175.992554	15.081609
176.992004	19.327618
177.991455	-34.690269
178.990906	-57.667110
179.990356	-42.056824
180.989807	-41.713196
181.989258	-28.415808
182.988708	0.136990
183.988159	19.973001
184.987610	49.014507
185.987061	50.919193
186.986511	54.760994
187.985962	37.765221
188.985413	19.718321
189.984863	12.048761
190.984314	-4.576946
191.983765	-17.125141
192.983215	34.380390
193.982666	26.388250
194.982117	34.138393
195.981567	33.023483
196.981018	20.573780
197.980469	6.620421
198.979919	7.017371
199.979370	-2.230121
200.978821	-20.053505
201.978271	-10.570909
202.977722	2.495626
203.977173	-2.488324
204.976624	-26.089315
205.976074	-40.025993
206.975525	-36.912746
207.974976	3.180668
208.974426	-14.331577
209.973877	-21.390415
210.973328	-22.937916
211.972778	4.602426
212.972229	-26.657831
213.971680	-6.307360
214.971130	-1.931612
215.970581	-10.584047
216.970032	-30.447359
217.969482	-16.912590
218.968933	-19.160128
219.968384	-25.093136
220.967834	-0.411876
221.967285	-5.216904
222.966736	-21.336906
223.966187	-15.928580
224.965637	-31.691599
225.965088	-21.930439
226.964539	-21.289120
227.963989	-5.722559
228.963440	15.314227
229.962891	17.779129
230.962341	8.152149
231.961792	-2.203392
232.961243	-14.269059
233.960693	-12.009718
234.960144	-3.652744
235.959595	-2.861285
236.959045	-7.743340
237.958496	5.636963
238.957947	6.387470
239.957397	22.582933
240.956848	34.865234
241.956299	18.429016
242.955750	11.514544
243.955200	3.047098
244.954651	-8.458602
245.954102	-9.714578
246.953552	-5.498184
247.953003	-36.953991
248.952454	-21.495218
249.951904	-16.260803
250.951355	-13.529920
251.950806	7.126090
252.950256	8.117729
253.949707	7.541471
254.949158	16.080965
255.948608	22.470631
256.949493	14.330366
257.950470	-7.243965
258.951447	-14.524069
259.952423	-16.799658
260.953400	-30.120419
261.954376	-25.613548
262.955353	-0.099673
263.956329	18.846188
264.957306	13.380256
265.958282	2.333478
266.959259	16.174896
267.960236	21.355999
268.961212	17.186562
269.962189	11.899632
270.963165	0.013572
271.964142	-4.279714
272.965118	-22.223633
273.966095	-27.972759
274.967072	-18.664795
275.968048	-24.818445
276.969025	-16.226353
277.970001	-16.807409
278.970978	-2.851100
279.971954	6.123552
280.972931	-1.202586
281.973907	-1.921347
282.974884	-7.277406
283.975861	-12.583958
284.976837	-10.928449
285.977814	4.362414
286.978790	5.622893
287.979767	1.685107
288.980743	8.179863
289.981720	7.709131
290.982697	5.692183
291.983673	2.709105
292.984650	-7.218649
293.985626	-5.803231
294.986603	-3.232469
295.987579	-6.862777
296.988556	0.039047
297.989532	-0.536690
298.990509	-3.944499
299.991486	-5.019452
300.992462	-2.184965
301.993439	-7.063297
302.994415	-6.247029
303.995392	-8.325693
304.996368	-10.638247
305.997345	-3.982946
306.998322	-3.206390
307.999298	0.543169
309.000275	3.276977
310.001251	2.455500
311.002228	8.907616
312.003204	6.433963
313.004181	1.119840
314.005157	-0.482461
315.006134	-0.334455
316.007111	-1.442340
317.008087	-1.422285
318.009064	-9.850916
319.010040	-9.312408
320.011017	-0.414372
321.011993	5.699820
322.012970	2.551400
323.013947	-4.289299
324.014923	-6.343713
325.015900	-10.159879
326.016876	-8.196464
327.017853	-6.822124
328.018829	-11.679963
329.019806	-10.773314
330.020782	-1.639061
331.021759	-2.997703
332.022736	2.574743
333.023712	5.726302
334.024689	3.617167
335.025665	3.644367
336.026642	3.655077
337.027618	1.025625
338.028595	-0.538221
339.029572	-2.300352
340.030548	-2.824476
341.031525	-4.253777
342.032501	-5.887383
343.033478	-2.726264
344.034454	0.662464
345.035431	-1.940929
346.036407	-6.160801
347.037384	-2.865516
348.038361	-3.833336
349.039337	-0.166398
350.040314	3.515690
351.041290	-1.685573
352.042267	-2.983900
353.043243	1.976838
354.044220	3.815587
355.045197	3.075089
356.046173	-1.731386
357.047150	0.190257
358.048126	-0.579923
359.049103	-2.235531
360.050079	-1.654608
361.051056	-5.516138
362.052032	-6.345423
363.053009	-4.751719
364.053986	-5.976401
365.054962	-5.888097
366.055939	0.756324
367.056915	3.010211
368.057892	0.376373
369.058868	1.977838
370.059845	4.632937
371.060822	6.536799
372.061798	4.164313
373.062775	0.496741
374.063751	-0.051700
375.064728	-1.237781
376.065704	-1.523648
377.066681	-3.842774
378.067657	-3.863445
379.068634	1.298657
380.069611	5.192353
381.070587	5.381636
382.071564	4.210794
383.072540	9.091722
384.073517	8.532438
385.074493	4.847760
386.075470	3.686323
387.076447	4.453318
388.077423	2.116809
389.078400	-2.964724
390.079376	-0.438925
391.080353	-1.208806
392.081329	-2.403018
393.082306	-1.005185
394.083282	-1.624126
395.084259	0.284091
396.085236	-0.862465
397.086212	1.090358
398.087189	1.462181
399.088165	-1.150219
400.089142	-1.891245
401.090118	-1.867709
402.091095	-1.766544
403.092072	-0.043135
404.093048	-1.368100
405.094025	-3.438422
406.095001	-3.845896
407.095978	-2.808946
408.096954	-2.038646
409.097931	-1.539810
410.098907	0.177632
411.099884	0.496050
412.100861	0.872585
413.101837	0.185028
414.102814	-0.651252
415.103790	-0.192098
416.104767	1.044251
417.105743	1.108766
418.106720	-1.326931
419.107697	-0.707821
420.108673	-0.207839
421.109650	-1.048853
422.110626	-0.236753
423.111603	0.482703
424.112579	-1.639560
425.113556	-2.168076
426.114532	-2.924825
427.115509	-1.646430
428.116486	-1.487193
429.117462	-3.732704
430.118439	-0.752606
431.119415	-0.232962
432.120392	-0.280889
433.121368	0.735207
434.122345	2.781795
435.123322	2.229309
436.124298	1.185498
437.125275	3.297168
438.126251	5.590238
439.127228	2.420487
440.128204	2.532895
441.129181	1.887184
442.130157	2.204072
443.131134	1.543835
444.132111	3.602911
445.133087	3.232851
446.134064	0.878522
447.135040	1.579627
448.136017	1.749630
449.136993	1.819393
450.137970	2.512389
451.138947	2.259643
452.139923	2.300372
453.140900	1.503073
454.141876	-0.395483
455.142853	-0.696834
456.143829	-0.479994
457.144806	2.041449
458.145782	0.734015
459.146759	1.619944
460.147736	3.005909
461.148712	1.203898
462.149689	0.877847
463.150665	1.516221
464.151642	1.601547
465.152618	1.704785
466.153595	1.694724
467.154572	1.799569
468.155548	1.342199
469.156525	1.658707
470.157501	1.919833
471.158478	0.842706
472.159454	2.303281
473.160431	2.636307
474.161407	2.386328
475.162384	2.626668
476.163361	2.442633
477.164337	1.435323
478.165314	1.760859
479.166290	1.445032
480.167267	-0.169695
481.168243	0.111533
482.169220	-0.619978
483.170197	0.375127
484.171173	1.269126
485.172150	3.041604
486.173126	3.132056
487.174103	3.629189
488.175079	3.394295
489.176056	3.209754
490.177032	2.626422
491.178009	2.488197
492.178986	2.444142
493.179962	2.786997
494.180939	2.871875
495.181915	1.435776
496.182892	2.826365
497.183868	1.607767
498.184845	0.621056
499.185822	1.217045
500.186798	1.857235
501.187775	1.187795
502.188751	1.457135
503.189728	2.028554
504.190704	1.267979
505.191681	1.408451
506.192657	1.015248
507.193634	1.172778
508.194611	1.632003
509.195587	2.140990
510.196564	1.988882
511.197540	1.944185
512.198486	2.859898
513.199463	2.496894
514.200439	2.589431
515.201416	2.699153
516.202393	2.522419
517.203369	2.048392
518.204346	1.926468
519.205322	1.945367
520.206299	1.745872
521.207275	1.655026
522.208252	2.059705
523.209229	2.520143
524.210205	2.538606
525.211182	2.353306
526.212158	2.126757
527.213135	2.061187
528.214111	2.153552
529.215088	1.700102
530.216064	1.499879
531.217041	2.003567
532.218018	1.536147
533.218994	1.568339
534.219971	1.391802
535.220947	1.347782
536.221924	1.124916
537.222900	0.959142
538.223877	1.210202
539.224854	0.882915
540.225830	0.550449
541.226807	0.038943
542.227783	0.390655
543.228760	0.194677
544.229736	0.532143
545.230713	0.154432
546.231689	0.430293
547.232666	0.581959
548.233643	0.452286
549.234619	0.468059
550.235596	0.218996
551.236572	0.748905
552.237549	0.516957
553.238525	0.512270
554.239502	1.198732
555.240479	1.654146
556.241455	1.575690
557.242432	1.987010
558.243408	1.730989
559.244385	2.131660
560.245361	1.796897
561.246338	1.887069
562.247314	1.820839
563.248291	1.619085
564.249268	1.168703
565.250244	1.299171
566.251221	1.184448
567.252197	0.993922
568.253174	0.834732
569.254150	0.970297
570.255127	1.267175
571.256104	1.064167
572.257080	1.626020
573.258057	1.501047
574.259033	1.276113
575.260010	1.302755
576.260986	1.218723
577.261963	1.221657
578.262939	1.293098
579.263916	1.347046
580.264893	1.530509
581.265869	1.421401
582.266846	1.274544
583.267822	1.448282
584.268799	1.679925
585.269775	2.123070
586.270752	2.309171
587.271729	2.450884
588.272705	2.424954
589.273682	2.298712
590.274658	2.520962
591.275635	2.175020
592.276611	1.935911
593.277588	1.924901
594.278564	1.908907
595.279541	1.759454
596.280518	1.929453
597.281494	1.955028
598.282471	2.210602
599.283447	2.211712
600.284424	1.857844
601.285400	1.960690
602.286377	1.762524
603.287354	1.600348
604.288330	1.712757
605.289307	2.009762
606.290283	1.780258
607.291260	2.087225
608.292236	2.380014
609.293213	2.387678
610.294189	2.369263
611.295166	2.430640
612.296143	2.432284
613.297119	2.565113
614.298096	2.301950
615.299072	2.105792
616.300049	2.165943
617.301025	1.851300
618.302002	1.711452
619.302979	1.855528
620.303955	1.923539
621.304932	1.615431
622.305908	1.816958
623.306885	1.628930
624.307861	1.619072
625.308838	1.398141
626.309814	1.350633
627.310791	1.397490
628.311768	1.309386
629.312744	1.338892
630.313721	1.307622
631.314697	1.579934
632.315674	1.344810
633.316650	1.425068
634.317627	1.374354
635.318604	1.423886
636.319580	1.270302
637.320557	1.287748
638.321533	1.296415
639.322510	1.155816
640.323486	1.343492
641.324463	1.313974
642.325439	1.548217
643.326416	1.685362
644.327393	1.792057
645.328369	1.952811
646.329346	2.040145
647.330322	1.986785
648.331299	2.023332
649.332275	1.936589
650.333252	1.874969
651.334229	1.743191
652.335205	1.709435
653.336182	1.609057
654.337158	1.574836
655.338135	1.643750
656.339111	1.627446
657.340088	1.813534
658.341064	1.739996
659.342041	1.886012
660.343018	1.790863
661.343994	1.784812
662.344971	1.718651
663.345947	1.544370
664.346924	1.533746
665.347900	1.308402
666.348877	1.266845
667.349854	1.224358
668.350830	1.127930
669.351807	1.116003
670.352783	1.119554
671.353760	1.066134
672.354736	1.073534
673.355713	1.070073
674.356689	1.065565
675.357666	1.193734
676.358643	1.194350
677.359619	1.299992
678.360596	1.425610
679.361572	1.506131
680.362549	1.579927
681.363525	1.568448
682.364502	1.616796
683.365479	1.571965
684.366455	1.534467
685.367432	1.452139
686.368408	1.461210
687.369385	1.447565
688.370361	1.372676
689.371338	1.377460
690.372314	1.402896
691.373291	1.310554
692.374268	1.326296
693.375244	1.209675
694.376221	1.263986
695.377197	1.196870
696.378174	1.110765
697.379150	1.159777
698.380127	1.129560
699.381104	1.147282
700.382080	1.115262
701.383057	1.258040
702.384033	1.272484
703.385010	1.401103
704.385986	1.408720
705.386963	1.607056
706.387939	1.670663
707.388916	1.682246
708.389893	1.795404
709.390869	1.788740
710.391846	1.809668
711.392822	1.733087
712.393799	1.677843
713.394775	1.700158
714.395752	1.562384
715.396729	1.584112
716.397705	1.574777
717.398682	1.660254
718.399658	1.683171
719.400635	1.706773
720.401611	1.844153
721.402588	1.826825
722.403564	1.952216
723.404541	1.856528
724.405518	2.015516
725.406494	1.891572
726.407471	1.957882
727.408447	1.796628
728.409424	1.886640
729.410400	1.746798
730.411377	1.705299
731.412354	1.625033
732.413330	1.564270
733.414307	1.549458
734.415283	1.380747
735.416260	1.492658
736.417236	1.416710
737.418213	1.583948
738.419189	1.470645
739.420166	1.723853
740.421143	1.649348
741.422119	1.814456
742.423096	1.664034
743.424072	1.802274
744.425049	1.724623
745.426025	1.700484
746.427002	1.650028
747.427979	1.664418
748.428955	1.715258
749.429932	1.579111
750.430908	1.685513
751.431885	1.601531
752.432861	1.690492
753.433838	1.486358
754.434814	1.610769
755.435791	1.461606
756.436768	1.574129
757.437744	1.336586
758.438721	1.504773
759.439697	1.385166
760.440674	1.390248
761.441650	1.311460
762.442627	1.275943
763.443604	1.330702
764.444580	1.122085
765.445557	1.240181
766.446533	1.103650
767.447510	1.242602
768.448486	1.077107
769.449463	1.231518
770.450439	1.189652
771.451416	1.306194
772.452393	1.283220
773.453369	1.413238
774.454346	1.497535
775.455322	1.551090
776.456299	1.600360
777.457275	1.625914
778.458252	1.698090
779.459229	1.607996
780.460205	1.670988
781.461182	1.585794
782.462158	1.670241
783.463135	1.560853
784.464111	1.592788
785.465088	1.511356
786.466064	1.513001
787.467041	1.402093
788.468018	1.331639
789.468994	1.297786
790.469971	1.201238
791.470947	1.171520
792.471924	1.048472
793.472900	1.090058
794.473877	0.987313
795.474854	1.010105
796.475830	0.940266
797.476807	1.019805
798.477783	1.007747
799.478760	1.043482
800.479736	1.084444
801.480713	1.173047
802.481689	1.231070
803.482666	1.243313
804.483643	1.368249
805.484619	1.397417
806.485596	1.509507
807.486572	1.457621
808.487549	1.607507
809.488525	1.547300
810.489502	1.602205
811.490479	1.507066
812.491455	1.542217
813.492432	1.473889
814.493408	1.397851
815.494385	1.365002
816.495361	1.324689
817.496338	1.327780
818.497314	1.226641
819.498291	1.288647
820.499268	1.230566
821.500244	1.273683
822.501221	1.168376
823.502197	1.233796
824.503174	1.170655
825.504150	1.174571
826.505127	1.131487
827.506104	1.160013
828.507080	1.158255
829.508057	1.155512
830.509033	1.149461
831.510010	1.189211
832.510986	1.169622
833.511963	1.178122
834.512939	1.169340
835.513916	1.193401
836.514893	1.197529
837.515869	1.179767
838.516846	1.229352
839.517822	1.193236
840.518799	1.253062
841.519775	1.185959
842.520752	1.261863
843.521729	1.204836
844.522705	1.280669
845.523682	1.242975
846.524658	1.316251
847.525635	1.324378
848.526611	1.385034
849.527588	1.403884
850.528564	1.433202
851.529541	1.460392
852.530518	1.473926
853.531494	1.457532
854.532471	1.473866
855.533447	1.445601
856.534424	1.456376
857.535400	1.407236
858.536377	1.387990
859.537354	1.394581
860.538330	1.310412
861.539307	1.334639
862.540283	1.228478
863.541260	1.313760
864.542236	1.171448
865.543213	1.254009
866.544189	1.156008
867.545166	1.252234
868.546143	1.162290
869.547119	1.241767
870.548096	1.219634
871.549072	1.280214
872.550049	1.258750
873.551025	1.283260
874.552002	1.323453
875.552979	1.294860
876.553955	1.336185
877.554932	1.284686
878.555908	1.400396
879.556885	1.298126
880.557861	1.431974
881.558838	1.325428
882.559814	1.483547
883.560791	1.345999
884.561768	1.456971
885.562744	1.350724
886.563721	1.424744
887.564697	1.340519
888.565674	1.357545
889.566650	1.366900
890.567627	1.362252
891.568604	1.409110
892.569580	1.379180
893.570557	1.489756
894.571533	1.443918
895.572510	1.537417
896.573486	1.473771
897.574463	1.589695
898.575439	1.512122
899.576416	1.595337
900.577393	1.512124
901.578369	1.609496
902.579346	1.526310
903.580322	1.569612
904.581299	1.517402
905.582275	1.564111
906.583252	1.511852
907.584229	1.516915
908.585205	1.505453
909.586182	1.513403
910.587158	1.490086
911.588135	1.446975
912.589111	1.466742
913.590088	1.403066
914.591064	1.402874
915.592041	1.297004
916.593018	1.353033
917.593994	1.239105
918.594971	1.273280
919.595947	1.168920
920.596924	1.243101
921.597900	1.139191
922.598877	1.170004
923.599854	1.095491
924.600830	1.139495
925.601807	1.060856
926.602783	1.063483
927.603760	1.036152
928.604736	1.047615
929.605713	1.034375
930.606689	1.015155
931.607666	1.082116
932.608643	1.061014
933.609619	1.139442
934.610596	1.097643
935.611572	1.219811
936.612549	1.171733
937.613525	1.251779
938.614502	1.200419
939.615479	1.283989
940.616455	1.237948
941.617432	1.269431
942.618408	1.251066
943.619385	1.295234
944.620361	1.282979
945.621338	1.296298
946.622314	1.307364
947.623291	1.337616
948.624268	1.327453
949.625244	1.324064
950.626221	1.332532
951.627197	1.325233
952.628174	1.314512
953.629150	1.279220
954.630127	1.316422
955.631104	1.283741
956.632080	1.322412
957.633057	1.287837
958.634033	1.373923
959.635010	1.331653
960.635986	1.395772
961.636963	1.336892
962.637939	1.409226
963.638916	1.326833
964.639893	1.348528
965.640869	1.284174
966.641846	1.298062
967.642822	1.255891
968.643799	1.221575
969.644775	1.246368
970.645752	1.200464
971.646729	1.241842
972.647705	1.165118
