# id:                 63
# size:               9000
# coupling constant:  1.000000E+00
# inhomogenity Delta: 1.500000E+00
0.010000	560.280518
1.009999	601.136597
2.009999	724.171692
3.009998	945.222290
4.009997	1289.075317
5.010020	1788.784546
6.010043	2470.204590
7.010066	3315.882812
8.010088	4185.944336
9.010111	4773.733887
10.010134	4776.830566
11.010157	4206.653809
12.010180	3380.953613
13.010202	2582.613037
14.010225	1950.946411
15.010248	1512.101318
16.010271	1246.418579
17.010294	1127.500854
18.010317	1120.623413
19.010340	1173.779907
20.010363	1211.454590
21.010386	1163.223877
22.010408	1010.528381
23.010431	819.628174
24.010454	661.701477
25.010477	548.045593
26.010500	482.788269
27.010523	454.717438
28.010546	430.206848
29.010569	387.987640
30.010592	335.032593
31.010614	271.647797
32.010635	196.962112
33.010468	128.681351
34.010300	87.765923
35.010132	84.963455
36.009964	115.030518
37.009796	159.731918
38.009628	181.653305
39.009460	167.549042
40.009293	141.008926
41.009125	116.347595
42.008957	103.772911
43.008789	90.773468
44.008621	75.999260
45.008453	60.347172
46.008286	47.894192
47.008118	53.073811
48.007950	54.085136
49.007782	37.386292
50.007614	30.029367
51.007446	39.160172
52.007278	41.305710
53.007111	37.248669
54.006943	38.494884
55.006775	44.149097
56.006607	61.380428
57.006439	78.185577
58.006271	81.666191
59.006104	80.246407
60.005936	76.899963
61.005768	59.829182
62.005600	52.841042
63.005432	42.746391
64.005264	32.068943
65.005478	43.895412
66.005692	68.036240
67.005905	83.694801
68.006119	81.626892
69.006332	92.463501
70.006546	101.046265
71.006760	104.576958
72.006973	101.224007
73.007187	84.198105
74.007401	72.766808
75.007614	61.705460
76.007828	65.052849
77.008041	50.914753
78.008255	30.816521
79.008469	9.980425
80.008682	-5.830613
81.008896	-18.483347
82.009109	-17.863218
83.009323	-15.193626
84.009537	-25.302507
85.009750	-30.473085
86.009964	-6.897507
87.010178	9.902843
88.010391	8.129513
89.010605	24.719597
90.010818	62.392735
91.011032	81.586823
92.011246	92.651703
93.011459	91.796333
94.011673	71.700897
95.011887	53.902248
96.012100	40.416290
97.012314	42.501549
98.012527	55.519535
99.012741	32.322559
100.012955	-5.035737
101.013168	-33.984097
102.013382	-31.974976
103.013596	-13.981182
104.013809	-36.357086
105.014023	-76.806053
106.014236	-88.908531
107.014450	-78.926353
108.014664	-22.917433
109.014877	27.352425
110.015091	45.064358
111.015305	65.034584
112.015518	44.293526
113.015732	35.316296
114.015945	22.969330
115.016159	25.989714
116.016373	39.874104
117.016586	43.832909
118.016800	37.790466
119.017014	46.494896
120.017227	85.934387
121.017441	75.333565
122.017654	43.128586
123.017868	32.452961
124.018082	43.259289
125.018295	11.505044
126.018509	-24.842104
127.018723	-31.952127
128.018921	-39.956528
129.018372	-16.998146
130.017822	5.797830
131.017273	-9.769911
132.016724	-25.852552
133.016174	-4.746207
134.015625	0.263376
135.015076	5.147742
136.014526	11.562253
137.013977	19.029013
138.013428	25.106085
139.012878	13.766953
140.012329	-0.518817
141.011780	-29.615694
142.011230	-14.664283
143.010681	-34.355633
144.010132	-43.409565
145.009583	-55.406723
146.009033	-68.748497
147.008484	-32.509346
148.007935	7.263038
149.007385	19.427460
150.006836	-5.947130
151.006287	-11.669644
152.005737	-22.544008
153.005188	-3.429993
154.004639	4.548629
155.004089	4.691560
156.003540	4.963327
157.002991	-5.899726
158.002441	-8.271324
159.001892	-10.441583
160.001343	1.856557
161.000793	-0.615645
162.000244	-18.680267
162.999695	-14.924997
163.999146	20.211794
164.998596	46.211494
165.998047	38.175156
166.997498	-3.919492
167.996948	-14.246236
168.996399	-10.089799
169.995850	-21.354986
170.995300	-16.572651
171.994751	-40.713295
172.994202	-24.806881
173.993652	1.733322
174.993103	31.415808
175.992554	34.555775
176.992004	28.646303
177.991455	40.430439
178.990906	32.120087
179.990356	-0.411239
180.989807	-29.411205
181.989258	-14.828535
182.988708	8.597835
183.988159	-7.137517
184.987610	3.253736
185.987061	2.740825
186.986511	-29.918371
187.985962	-25.705755
188.985413	-15.179728
189.984863	13.503054
190.984314	21.609087
191.983765	23.883497
192.983215	13.530193
193.982666	21.901075
194.982117	22.147449
195.981567	18.644983
196.981018	-11.676122
197.980469	-49.670902
198.979919	-34.456535
199.979370	-24.165411
200.978821	-9.633284
201.978271	-5.752645
202.977722	-6.374821
203.977173	-6.984386
204.976624	-11.605501
205.976074	-7.253032
206.975525	-0.713498
207.974976	-1.682587
208.974426	-19.652441
209.973877	-8.892796
210.973328	-20.583990
211.972778	-2.597292
212.972229	5.615650
213.971680	8.506040
214.971130	-24.000063
215.970581	-19.020233
216.970032	-8.443100
217.969482	-13.127691
218.968933	-1.432355
219.968384	-17.828606
220.967834	-5.751772
221.967285	-12.355723
222.966736	-0.355664
223.966187	1.332220
224.965637	-23.693132
225.965088	-13.202770
226.964539	-21.612122
227.963989	-44.193871
228.963440	-0.089399
229.962891	0.880189
230.962341	13.314761
231.961792	0.795873
232.961243	0.105816
233.960693	3.399124
234.960144	-1.201159
235.959595	-4.154187
236.959045	-6.181194
237.958496	-8.186117
238.957947	5.942237
239.957397	-8.102308
240.956848	11.097487
241.956299	5.776469
242.955750	7.873057
243.955200	17.572309
244.954651	-8.999680
245.954102	-11.600067
246.953552	1.761023
247.953003	-8.830892
248.952454	-21.282713
249.951904	-8.312331
250.951355	-13.214313
251.950806	2.693566
252.950256	4.189510
253.949707	-7.604561
254.949158	5.117406
255.948608	22.545502
256.949493	22.035641
257.950470	6.082329
258.951447	-5.528753
259.952423	-10.553329
260.953400	-8.267234
261.954376	-9.637725
262.955353	-5.820775
263.956329	-5.179834
264.957306	-2.313366
265.958282	-4.023492
266.959259	-3.776105
267.960236	-8.436232
268.961212	-19.614386
269.962189	-8.140097
270.963165	-12.197546
271.964142	-20.079090
272.965118	-8.452129
273.966095	-8.740401
274.967072	-11.187481
275.968048	-1.243876
276.969025	-2.938283
277.970001	-2.972124
278.970978	-0.531737
279.971954	10.723093
280.972931	11.347107
281.973907	22.209795
282.974884	12.443379
283.975861	3.898808
284.976837	13.643298
285.977814	10.531587
286.978790	14.602466
287.979767	-2.008365
288.980743	-3.786617
289.981720	-1.690381
290.982697	-8.859776
291.983673	-6.240356
292.984650	-1.868986
293.985626	-13.785854
294.986603	-3.735452
295.987579	-3.183178
296.988556	-8.949326
297.989532	-10.985956
298.990509	-6.338313
299.991486	-8.360794
300.992462	-7.311758
301.993439	-4.452790
302.994415	2.884132
303.995392	3.022237
304.996368	3.883806
305.997345	4.263480
306.998322	7.811181
307.999298	12.438904
309.000275	10.652158
310.001251	13.714903
311.002228	9.881476
312.003204	6.465280
313.004181	10.756214
314.005157	5.893488
315.006134	7.494413
316.007111	6.746866
317.008087	5.990646
318.009064	2.478593
319.010040	-5.937363
320.011017	-0.708891
321.011993	1.374881
322.012970	-2.556655
323.013947	-0.883143
324.014923	2.133451
325.015900	8.907898
326.016876	5.402505
327.017853	5.752809
328.018829	8.909189
329.019806	2.954904
330.020782	0.730424
331.021759	3.874347
332.022736	4.153149
333.023712	2.251786
334.024689	3.783940
335.025665	10.413602
336.026642	11.443410
337.027618	8.771770
338.028595	6.250758
339.029572	4.832498
340.030548	6.276435
341.031525	7.053490
342.032501	2.139593
343.033478	1.698738
344.034454	1.095667
345.035431	-3.020829
346.036407	-2.829199
347.037384	-5.180319
348.038361	-2.442783
349.039337	3.445205
350.040314	2.814479
351.041290	1.642208
352.042267	2.009524
353.043243	6.458802
354.044220	7.378657
355.045197	6.337240
356.046173	5.217953
357.047150	5.707763
358.048126	6.850091
359.049103	0.062175
360.050079	-1.538824
361.051056	2.572649
362.052032	-1.638582
363.053009	-1.387747
364.053986	3.329087
365.054962	4.659590
366.055939	2.604202
367.056915	0.284377
368.057892	5.933238
369.058868	6.839911
370.059845	1.896777
371.060822	4.407777
372.061798	4.073464
373.062775	-0.548844
374.063751	0.101265
375.064728	-1.458678
376.065704	-0.289878
377.066681	-1.523717
378.067657	-0.923572
379.068634	-1.461346
380.069611	-2.024509
381.070587	-5.167445
382.071564	-2.615894
383.072540	-5.003206
384.073517	-5.872655
385.074493	-6.917092
386.075470	-5.889371
387.076447	-4.981252
388.077423	-4.082878
389.078400	0.562469
390.079376	0.633499
391.080353	4.585240
392.081329	8.565144
393.082306	7.962941
394.083282	5.156404
395.084259	4.663295
396.085236	5.604562
397.086212	2.639729
398.087189	3.308955
399.088165	1.513645
400.089142	-1.641904
401.090118	0.023963
402.091095	-2.495407
403.092072	-3.964014
404.093048	-2.024670
405.094025	-2.818172
406.095001	-2.333763
407.095978	-4.909962
408.096954	-4.103751
409.097931	-1.855391
410.098907	-1.553342
411.099884	-0.261516
412.100861	-0.010850
413.101837	-0.581671
414.102814	0.724266
415.103790	3.068927
416.104767	2.357956
417.105743	1.682928
418.106720	4.792109
419.107697	3.336778
420.108673	3.782360
421.109650	5.562215
422.110626	4.102291
423.111603	4.520533
424.112579	3.754095
425.113556	3.970800
426.114532	4.808964
427.115509	5.341237
428.116486	5.475250
429.117462	3.728617
430.118439	2.412733
431.119415	1.937135
432.120392	0.788033
433.121368	-1.010394
434.122345	0.237175
435.123322	0.927233
436.124298	0.090272
437.125275	-0.289240
438.126251	1.291749
439.127228	0.608908
440.128204	0.399572
441.129181	2.381838
442.130157	3.425687
443.131134	1.909337
444.132111	1.854181
445.133087	1.623407
446.134064	-0.663080
447.135040	0.015034
448.136017	0.229542
449.136993	-0.322304
450.137970	0.647184
451.138947	1.982075
452.139923	1.442240
453.140900	1.286608
454.141876	1.687420
455.142853	2.029866
456.143829	1.790491
457.144806	0.934927
458.145782	1.677841
459.146759	-0.289395
460.147736	0.632439
461.148712	0.160979
462.149689	-0.624741
463.150665	-0.327008
464.151642	-1.294402
465.152618	-1.037983
466.153595	-0.396186
467.154572	-0.095438
468.155548	0.496500
469.156525	1.471370
470.157501	1.346849
471.158478	0.170572
472.159454	-0.511205
473.160431	-0.271804
474.161407	-0.102073
475.162384	-0.808283
476.163361	-0.081348
477.164337	0.327670
478.165314	-0.668522
479.166290	-0.562357
480.167267	0.546801
481.168243	0.815102
482.169220	0.358783
483.170197	1.106096
484.171173	1.591373
485.172150	0.248024
486.173126	0.300407
487.174103	0.208909
488.175079	-0.080119
489.176056	-1.199486
490.177032	-1.853583
491.178009	-1.518787
492.178986	-1.219004
493.179962	-1.780302
494.180939	-1.420309
495.181915	-0.545628
496.182892	-1.541296
497.183868	-1.556741
498.184845	-1.311967
499.185822	-1.050356
500.186798	-0.492938
501.187775	-0.521101
502.188751	-0.392148
503.189728	0.058298
504.190704	0.397335
505.191681	-0.966341
506.192657	-0.365794
507.193634	-0.586091
508.194611	-1.458779
509.195587	-1.718000
510.196564	-0.868897
511.197540	-1.125987
512.198486	-1.348886
513.199463	-0.867891
514.200439	-1.060455
515.201416	-0.523675
516.202393	-0.979802
517.203369	-0.550664
518.204346	0.015756
519.205322	-0.192199
520.206299	-0.219151
521.207275	-0.480281
522.208252	-0.003503
523.209229	-0.890212
524.210205	-2.314921
525.211182	-1.608898
526.212158	-2.231912
527.213135	-2.094456
528.214111	-2.747102
529.215088	-1.137474
530.216064	-1.126178
531.217041	-1.781829
532.218018	-1.647739
533.218994	-0.570480
534.219971	-0.295738
535.220947	-1.031508
536.221924	-0.004741
537.222900	0.164459
538.223877	-0.097074
539.224854	-0.046267
540.225830	0.418559
541.226807	0.359828
542.227783	0.622046
543.228760	0.270897
544.229736	0.771098
545.230713	1.092906
546.231689	0.549347
547.232666	1.045319
548.233643	0.920115
549.234619	1.237832
550.235596	0.024516
551.236572	0.268457
552.237549	0.403206
553.238525	0.016205
554.239502	-0.316219
555.240479	-0.153705
556.241455	0.380557
557.242432	-0.511519
558.243408	-0.472900
559.244385	0.219651
560.245361	-0.323750
561.246338	-0.107685
562.247314	-0.697400
563.248291	-0.425080
564.249268	-0.650950
565.250244	-1.278812
566.251221	-1.000188
567.252197	-0.378714
568.253174	-0.005386
569.254150	-0.729201
570.255127	-0.402652
571.256104	0.060858
572.257080	0.347746
573.258057	-0.353954
574.259033	-0.272536
575.260010	0.079173
576.260986	0.044724
577.261963	-0.077986
578.262939	0.488793
579.263916	0.881205
580.264893	0.664206
581.265869	0.936900
582.266846	1.189696
583.267822	1.244909
584.268799	0.819558
585.269775	0.394183
586.270752	0.783772
587.271729	0.634619
588.272705	0.214731
589.273682	0.330354
590.274658	0.748576
591.275635	0.910434
592.276611	0.637419
593.277588	0.420869
594.278564	0.430858
595.279541	-0.419125
596.280518	-0.744181
597.281494	-0.583326
598.282471	-0.121826
599.283447	-0.494839
600.284424	-0.521474
601.285400	-0.054631
602.286377	-0.166365
603.287354	-0.402532
604.288330	-0.716541
605.289307	-0.274493
606.290283	-0.294941
607.291260	-0.355513
608.292236	0.041987
609.293213	0.322537
610.294189	0.675095
611.295166	0.240119
612.296143	0.369556
613.297119	0.477363
614.298096	0.096275
615.299072	-0.341153
616.300049	-0.250065
617.301025	-0.305008
618.302002	-0.578986
619.302979	-0.671548
620.303955	-0.283928
621.304932	0.147596
622.305908	-0.305555
623.306885	-0.149349
624.307861	0.308359
625.308838	0.352794
626.309814	0.117903
627.310791	0.015208
628.311768	0.051741
629.312744	0.006989
630.313721	-0.150522
631.314697	0.076983
632.315674	0.447157
633.316650	0.609322
634.317627	0.643117
635.318604	0.934627
636.319580	1.276199
637.320557	1.056957
638.321533	0.895489
639.322510	0.921063
640.323486	0.764812
641.324463	0.638185
642.325439	0.414734
643.326416	0.799597
644.327393	1.511658
645.328369	1.140865
646.329346	1.411813
647.330322	1.200258
648.331299	0.930373
649.332275	0.365820
650.333252	0.558049
651.334229	0.522115
652.335205	0.712534
653.336182	0.915260
654.337158	0.945339
655.338135	1.062070
656.339111	0.914919
657.340088	0.987976
658.341064	1.254822
659.342041	1.490723
660.343018	1.293259
661.343994	1.143329
662.344971	1.223729
663.345947	1.014460
664.346924	0.905583
665.347900	0.765684
666.348877	0.793281
667.349854	1.015031
668.350830	0.920740
669.351807	0.923776
670.352783	0.910461
671.353760	0.942849
672.354736	0.438568
673.355713	0.507084
674.356689	0.414970
675.357666	0.311257
676.358643	-0.106539
677.359619	0.110998
678.360596	0.087584
679.361572	-0.031613
680.362549	0.270126
681.363525	0.458578
682.364502	0.277097
683.365479	-0.171762
684.366455	-0.035382
685.367432	-0.279529
686.368408	-0.056924
687.369385	0.128174
688.370361	-0.188608
689.371338	-0.042653
690.372314	-0.375531
691.373291	-0.044531
692.374268	-0.201532
693.375244	0.129579
694.376221	-0.086192
695.377197	-0.079652
696.378174	-0.210343
697.379150	-0.194750
698.380127	-0.329705
699.381104	-0.462886
700.382080	-0.368128
701.383057	-0.109495
702.384033	-0.095337
703.385010	0.020537
704.385986	-0.035492
705.386963	-0.126534
706.387939	-0.194289
707.388916	-0.360957
708.389893	-0.278527
709.390869	-0.241234
710.391846	-0.177985
711.392822	-0.134231
712.393799	0.004752
713.394775	0.060016
714.395752	0.131194
715.396729	0.167928
716.397705	0.241630
717.398682	0.195450
718.399658	0.125392
719.400635	0.095073
720.401611	0.026658
721.402588	0.014754
722.403564	-0.132399
723.404541	-0.165398
724.405518	-0.195026
725.406494	-0.259010
726.407471	-0.317450
727.408447	-0.379721
728.409424	-0.405047
729.410400	-0.418269
730.411377	-0.515188
731.412354	-0.476863
732.413330	-0.501604
733.414307	-0.467952
734.415283	-0.532683
735.416260	-0.486673
736.417236	-0.439587
737.418213	-0.484101
738.419189	-0.466644
739.420166	-0.454327
740.421143	-0.350008
741.422119	-0.463414
742.423096	-0.359900
743.424072	-0.400717
744.425049	-0.243896
745.426025	-0.345776
746.427002	-0.278090
747.427979	-0.227024
748.428955	-0.202785
749.429932	-0.200982
750.430908	-0.235079
751.431885	-0.092645
752.432861	-0.228705
753.433838	-0.161636
754.434814	-0.265926
755.435791	-0.125847
756.436768	-0.271872
757.437744	-0.272484
758.438721	-0.280893
759.439697	-0.233654
760.440674	-0.272834
761.441650	-0.274812
762.442627	-0.133343
763.443604	-0.101714
764.444580	-0.000781
765.445557	0.011484
766.446533	0.210842
767.447510	0.160576
768.448486	0.224935
769.449463	0.144543
770.450439	0.231611
771.451416	0.134026
772.452393	0.104704
773.453369	0.112167
774.454346	0.118081
775.455322	0.106835
776.456299	0.001327
777.457275	0.043398
778.458252	-0.063596
779.459229	-0.104347
780.460205	-0.221871
781.461182	-0.186135
782.462158	-0.209942
783.463135	-0.178475
784.464111	-0.164276
785.465088	-0.041260
786.466064	-0.000295
787.467041	0.015599
788.468018	0.073566
789.468994	0.085910
790.469971	0.108181
791.470947	0.041579
792.471924	0.073002
793.472900	0.048996
794.473877	0.028278
795.474854	-0.007867
796.475830	0.016569
797.476807	0.048883
798.477783	0.047003
799.478760	0.083212
800.479736	0.109581
801.480713	0.120044
802.481689	0.097471
803.482666	0.059344
804.483643	0.055775
805.484619	0.007873
806.485596	0.006817
807.486572	0.013035
808.487549	0.036871
809.488525	0.073132
810.489502	0.064839
811.490479	0.099077
812.491455	0.066086
813.492432	0.055293
814.493408	0.017727
815.494385	-0.014398
816.495361	-0.026323
817.496338	-0.045523
818.497314	-0.014999
819.498291	-0.026076
820.499268	0.041554
821.500244	0.077452
822.501221	0.136781
823.502197	0.161005
824.503174	0.204929
825.504150	0.232696
826.505127	0.219233
827.506104	0.210882
828.507080	0.195031
829.508057	0.196730
830.509033	0.128167
831.510010	0.136793
832.510986	0.086294
833.511963	0.098859
834.512939	0.008168
835.513916	0.025380
836.514893	-0.005173
837.515869	-0.018940
838.516846	-0.052579
839.517822	-0.056731
840.518799	-0.029290
841.519775	-0.075336
842.520752	-0.047489
843.521729	-0.077191
844.522705	-0.026942
845.523682	-0.103591
846.524658	-0.075003
847.525635	-0.128482
848.526611	-0.099201
849.527588	-0.184159
850.528564	-0.169458
851.529541	-0.188698
852.530518	-0.195211
853.531494	-0.204235
854.532471	-0.227567
855.533447	-0.151989
856.534424	-0.186967
857.535400	-0.131352
858.536377	-0.137236
859.537354	-0.041705
860.538330	-0.071732
861.539307	-0.017852
862.540283	-0.024677
863.541260	0.034640
864.542236	0.002806
865.543213	0.020215
866.544189	0.045267
867.545166	0.069660
868.546143	0.074122
869.547119	0.066010
870.548096	0.120358
871.549072	0.076929
872.550049	0.092625
873.551025	0.007382
874.552002	0.057707
875.552979	-0.042701
876.553955	-0.049528
877.554932	-0.102240
878.555908	-0.082463
879.556885	-0.106600
880.557861	-0.124438
881.558838	-0.071622
882.559814	-0.074984
883.560791	-0.019889
884.561768	-0.059411
885.562744	0.024310
886.563721	-0.003551
887.564697	0.024829
888.565674	-0.011874
889.566650	0.020931
890.567627	0.022405
891.568604	0.002718
892.569580	0.035131
893.570557	0.039881
894.571533	0.085181
895.572510	0.040381
896.573486	0.070866
897.574463	0.039221
898.575439	0.016922
899.576416	-0.048398
900.577393	-0.082313
901.578369	-0.101950
902.579346	-0.151909
903.580322	-0.161892
904.581299	-0.177347
905.582275	-0.136212
906.583252	-0.157559
907.584229	-0.121014
908.585205	-0.114514
909.586182	-0.070142
910.587158	-0.085842
911.588135	-0.077462
912.589111	-0.070393
913.590088	-0.079059
914.591064	-0.089573
915.592041	-0.119854
916.593018	-0.085186
917.593994	-0.116053
918.594971	-0.092184
919.595947	-0.121251
920.596924	-0.063693
921.597900	-0.097411
922.598877	-0.074910
923.599854	-0.099680
924.600830	-0.074181
925.601807	-0.097421
926.602783	-0.118223
927.603760	-0.111129
928.604736	-0.126591
929.605713	-0.110539
930.606689	-0.150085
931.607666	-0.093345
932.608643	-0.106008
933.609619	-0.059527
934.610596	-0.073501
935.611572	-0.004347
936.612549	-0.006396
937.613525	0.029225
938.614502	0.013509
939.615479	0.044396
940.616455	0.037302
941.617432	0.012160
942.618408	0.004315
943.619385	-0.026169
944.620361	-0.023360
945.621338	-0.099884
946.622314	-0.086411
947.623291	-0.142015
948.624268	-0.127885
949.625244	-0.196253
950.626221	-0.175956
951.627197	-0.191123
952.628174	-0.195060
953.629150	-0.209253
954.630127	-0.216153
955.631104	-0.185922
956.632080	-0.224643
957.633057	-0.205425
958.634033	-0.215929
959.635010	-0.175605
960.635986	-0.198947
961.636963	-0.174677
